,time,Voltage.RGAS,Voltage.RVL
0,0,-0.0911331177,0.0007629395
1,0.001,-0.1220321655,0.0177383423
2,0.002,-0.0959014893,0.0143051147
3,0.003,-0.049171447800000004,-0.0001907349
4,0.004,-0.0116348267,0.0077819824
5,0.005,0.0293731689,-0.0008773804
6,0.006,0.0465774536,-0.007019043000000001
7,0.007,0.036239624000000005,-0.0008010864
8,0.008,0.0252532959,0.0068664551
9,0.009000000000000001,0.020828247100000002,0.0049972534
10,0.01,0.0214004517,0.0081253052
11,0.011,0.006904602100000001,-0.0065612793
12,0.012,-0.0048446655,-0.0007629395
13,0.013000000000000001,-0.0184249878,-0.0022125244
14,0.014,-0.0043487549000000006,0.0062942505
15,0.015,0.0011444092,0.0038146973000000002
16,0.016,0.0077056885,-0.0019454956
17,0.017,0.0165557861,-0.0014495850000000002
18,0.018000000000000002,0.014915466300000001,-0.0025177002
19,0.019,-0.0025177002,0.0016784668
20,0.02,-0.016746521,0.0142669678
21,0.021,-0.012512207000000001,0.015296936
22,0.022,0.0095748901,-0.0004577637
23,0.023,0.022315979,-0.0002670288
24,0.024,0.0199508667,-0.0040054321
25,0.025,-0.0051879883,-0.0057220459
26,0.026000000000000002,-0.023193359400000002,0.0012207031
27,0.027,-0.0260543823,0.018386840800000002
28,0.028,0.0020217896,0.006523132300000001
29,0.029,0.049171447800000004,0.004959106400000001
30,0.03,0.048789978000000005,-0.0042724609
31,0.031,0.020980835,-0.0057983398
32,0.032,-0.0142288208,-0.0101089478
33,0.033,-0.05027771,0.0007247925
34,0.034,-0.0527572632,0.002746582
35,0.035,-0.0512695312,-0.0070571899
36,0.036000000000000004,-0.0476074219,-0.0047302246
37,0.037,-0.0395584106,-0.0030136108
38,0.038,-0.030632019000000003,-0.00831604
39,0.039,0.0062179565,-0.0074386597
40,0.04,0.033531189,0.007095336900000001
41,0.041,0.037651062,0.006523132300000001
42,0.042,0.0408554077,0.0076675415000000005
43,0.043000000000000003,0.0113677979,-0.0040054321
44,0.044,-0.0317764282,-0.0043106079
45,0.045,-0.0539779663,-0.0212478638
46,0.046,-0.0452041626,-0.0087738037
47,0.047,-0.0383377075,-0.0051879883
48,0.048,-0.0210571289,-0.0079345703
49,0.049,-0.0354766846,-0.0068664551
50,0.05,-0.0656890869,-0.0086593628
51,0.051000000000000004,-0.0534439087,-0.0141525269
52,0.052000000000000005,-0.0564956665,-0.0089645386
53,0.053,-0.0733184814,0.0009536743
54,0.054,-0.0514984131,-0.0001907349
55,0.055,0.0363922119,0.0017166138000000001
56,0.056,0.1024627686,-0.0031661987
57,0.057,0.1070022583,-0.0032806396000000003
58,0.058,0.0646209717,-0.0067901611
59,0.059000000000000004,0.040245056200000004,0.0065612793
60,0.06,0.016708374,0.0031280518
61,0.061,0.0147628784,0.0029754639
62,0.062,-0.0017166138000000001,-0.0053024292
63,0.063,-0.0082397461,-0.0024795532000000003
64,0.064,-0.0108337402,-0.010757446300000001
65,0.065,-0.024871826200000002,-0.0032424927000000003
66,0.066,-0.0542831421,-0.002822876
67,0.067,-0.059776306200000004,-0.00015258790000000002
68,0.068,-0.029830932600000002,-0.0102615356
69,0.069,-0.014076232900000001,-0.0040817261
70,0.07,0.0318145752,-0.013961792
71,0.07100000000000001,0.0368118286,-0.009803772
72,0.07200000000000001,0.0473403931,0.0037002563
73,0.073,0.0343704224,0.0146865845
74,0.074,0.016441345200000002,0.0032043457
75,0.075,-0.0165557861,-0.0075531006
76,0.076,-0.0110626221,-0.0038528442000000003
77,0.077,0.001411438,-0.0025939941
78,0.078,0.0001144409,-0.006942749000000001
79,0.079,-0.0215530396,0.0094985962
80,0.08,-0.0193405151,-0.0058364868
81,0.081,0.0040817261,-0.0019836426
82,0.082,0.0003433228,-0.0146865845
83,0.083,0.0138092041,-0.016784668000000003
84,0.084,0.008392334000000001,-0.0135421753
85,0.085,0.0090026855,0.0012969971
86,0.08600000000000001,0.0064468384,0.005340576200000001
87,0.08700000000000001,0.015258789100000001,-0.0050354004
88,0.088,0.0040817261,-0.0034332275000000002
89,0.089,0.006980896,-0.011177063000000001
90,0.09,0.0023651123,-0.0099182129
91,0.091,-0.0046920776,-0.0040817261
92,0.092,-0.0086593628,0.0072097778
93,0.093,-0.0077438354,0.0009918213
94,0.094,-0.0563430786,-0.0034713745000000003
95,0.095,-0.090675354,0.0057601929
96,0.096,-0.0423431396,-0.0007247925
97,0.097,0.0275802612,-0.01121521
98,0.098,0.0431442261,0.0049209595000000005
99,0.099,0.0277709961,0.0051116943000000005
100,0.1,0.0429534912,0.0047683716
101,0.101,0.0806045532,0.0045776367
102,0.10200000000000001,0.0751876831,0.0033950806
103,0.10300000000000001,0.0496673584,-0.0008773804
104,0.10400000000000001,0.0081634521,0.0038146973000000002
105,0.105,-0.007858276400000001,0.0062179565
106,0.106,0.0113296509,0.0033187866
107,0.107,0.0263595581,0.0046157837
108,0.108,0.00415802,0.0011444092
109,0.109,-0.0226211548,-0.002746582
110,0.11,-0.0407409668,-0.0103378296
111,0.111,-0.028991699200000002,0.0080871582
112,0.112,-0.0054168701,0.009117126500000001
113,0.113,-0.0095748901,0.0046157837
114,0.114,-0.0173950195,-0.0011444092
115,0.115,-0.0397872925,-0.0056838989000000005
116,0.116,-0.0590133667,-0.0025558472
117,0.117,-0.0626373291,-0.0054931641000000005
118,0.11800000000000001,-0.0253295898,-0.0023651123
119,0.11900000000000001,0.0193023682,-0.0020599365000000002
120,0.12,0.0541305542,-0.0033950806
121,0.121,0.0384902954,-0.0143432617
122,0.122,0.0511932373,-0.0108337402
123,0.123,0.0662612915,-0.0077819824
124,0.124,0.052680969200000004,-0.0018310547000000002
125,0.125,0.012512207000000001,-0.006980896
126,0.126,-0.0085830688,-0.0074768066
127,0.127,-0.018730163600000002,-0.0094604492
128,0.128,-0.0239181519,-0.0085449219
129,0.129,-0.010757446300000001,-0.0077056885
130,0.13,-0.0225448608,-0.0049972534
131,0.131,-0.0299072266,0.0074005127
132,0.132,-0.0207901001,-0.001411438
133,0.133,0.0040435791,-0.0022125244
134,0.134,0.0171279907,-0.0034713745000000003
135,0.135,0.021934509300000002,-0.0056838989000000005
136,0.136,0.0172424316,-0.012207031200000001
137,0.137,0.0089645386,-0.0017166138000000001
138,0.138,-0.0033569336,0.0025939941
139,0.139,0.0128936768,-0.0048828125
140,0.14,0.0064086914,-0.0099945068
141,0.14100000000000001,0.0037002563,-0.0085067749
142,0.14200000000000002,-0.0090408325,-0.0033569336
143,0.14300000000000002,-0.0129699707,-0.0028610229000000003
144,0.14400000000000002,-0.0201416016,0.0064849854000000005
145,0.145,-0.006332397500000001,0.0015258789000000001
146,0.146,0.0147247314,-0.0059127808000000006
147,0.147,0.0156402588,-0.0074005127
148,0.148,0.0033950806,-0.0030136108
149,0.149,-0.0019836426,-0.0112533569
150,0.15,-0.004196167000000001,0.0036621094000000003
151,0.151,-0.0050354004,0.005607605000000001
152,0.152,0.005569458,0.0035095215
153,0.153,-0.0057983398,0.0032043457
154,0.154,-0.0112533569,-0.0012588501
155,0.155,-0.020942688,-0.0004577637
156,0.156,-0.019149780300000002,0.0012969971
157,0.157,-0.0147628784,-0.0019836426
158,0.158,0.0019073486,-0.0011062622
159,0.159,0.0030899048,-0.0006484985
160,0.16,0.0054931641000000005,-0.0050354004
161,0.161,-0.0060653687000000005,-0.0043869019
162,0.162,-0.0044631958,-0.0093841553
163,0.163,-0.009803772,0.0037002563
164,0.164,-0.0033569336,0.007858276400000001
165,0.165,0.0159072876,0.002746582
166,0.166,0.0094985962,-0.0012588501
167,0.167,0.0017547607,-0.0038909912
168,0.168,0.0063705444,-0.008354187
169,0.169,-0.0039672852,0.0009155273000000001
170,0.17,-0.005569458,0.0068283081
171,0.171,-0.002822876,0.005950927700000001
172,0.17200000000000001,0.0163269043,-0.0081634521
173,0.17300000000000001,0.009765625,-0.002784729
174,0.17400000000000002,-0.0001907349,-0.007019043000000001
175,0.17500000000000002,-0.0038528442000000003,-0.0081253052
176,0.176,-0.0020217896,0.0053787231
177,0.177,-0.0024795532000000003,0.011291503900000001
178,0.178,0.008354187,0.0021362305
179,0.179,0.0109100342,0.0059890747
180,0.18,-0.0004959106,-0.0076675415000000005
181,0.181,0.00030517580000000003,-0.0099563599
182,0.182,-0.0042724609,0.0077056885
183,0.183,-0.0025558472,0.0072860718
184,0.184,0.00415802,0.0004196167
185,0.185,0.008888244600000001,0.0003433228
186,0.186,0.0055313110000000006,-0.0024032593
187,0.187,0.0014495850000000002,-0.0060272217
188,0.188,-0.004196167000000001,-0.0074768066
189,0.189,-0.0015640259,0.0047683716
190,0.19,-0.0109481812,0.0137329102
191,0.191,0.0068283081,-0.0012588501
192,0.192,0.01121521,0.0028610229000000003
193,0.193,0.0052642822,-0.0031661987
194,0.194,0.0021362305,-0.0092315674
195,0.195,-0.0059890747,0.00415802
196,0.196,-0.011100769,0.009307861300000001
197,0.197,-0.0049209595000000005,0.0010681152
198,0.198,0.005569458,0.0013351440000000001
199,0.199,0.0040817261,-0.0019073486
200,0.2,0.004234314,0.0005340576
201,0.201,-0.0015640259,-0.0028610229000000003
202,0.202,-0.0000762939,-0.0010299683000000001
203,0.203,-0.0077056885,-0.0025939941
204,0.20400000000000001,0.0019073486,-0.0014495850000000002
205,0.20500000000000002,0.010757446300000001,-0.0048065186
206,0.20600000000000002,0.0060272217,-0.0051116943000000005
207,0.20700000000000002,-0.0016021729,-0.005607605000000001
208,0.20800000000000002,-0.006523132300000001,0.0009155273000000001
209,0.209,-0.0042724609,0.0185394287
210,0.21,0.0010681152,0.0047683716
211,0.211,0.0074768066,0.0004196167
212,0.212,0.0096511841,-0.0037002563
213,0.213,-0.0001144409,-0.0090789795
214,0.214,0.0009155273000000001,-0.0120544434
215,0.215,-0.0025558472,-0.0016784668
216,0.216,-0.0068283081,0.0290298462
217,0.217,0.0093460083,0.03490448
218,0.218,0.0123596191,0.0220870972
219,0.219,-0.0018692017,0.0276947021
220,0.22,0.0030899048,0.0076675415000000005
221,0.221,-0.0053787231,0.0057983398
222,0.222,-0.0016784668,0.0099945068
223,0.223,-0.0030136108,0.0053024292
224,0.224,0.014419555700000001,-0.0106048584
225,0.225,0.0101852417,-0.0172424316
226,0.226,-0.0051116943000000005,0.011711120600000001
227,0.227,-0.0021743774,0.020484924300000002
228,0.228,-0.0049209595000000005,0.0425338745
229,0.229,-0.0064086914,0.0262451172
230,0.23,0.008468627900000001,0.0034713745000000003
231,0.231,0.012207031200000001,-0.0000762939
232,0.232,0.0030136108,-0.0042724609
233,0.233,-0.0017547607,-0.0119018555
234,0.234,-0.008430481,-0.0179290771
235,0.23500000000000001,-0.00415802,-0.0155639648
236,0.23600000000000002,0.0047683716,-0.0302124023
237,0.23700000000000002,0.0091552734,-0.036201477100000004
238,0.23800000000000002,0.0046920776,-0.05443573
239,0.23900000000000002,0.0025939941,-0.0761413574
240,0.24,0.00415802,-0.0692367554
241,0.241,-0.0015258789000000001,-0.038032531700000004
242,0.242,-0.004196167000000001,-0.0259017944
243,0.243,0.008697509800000001,-0.0179290771
244,0.244,0.0070571899,-0.0163650513
245,0.245,-0.0002670288,-0.0074768066
246,0.246,0.0045394897000000005,0.0009155273000000001
247,0.247,-0.002784729,0.0059890747
248,0.248,-0.009765625,0.0151824951
249,0.249,-0.0004196167,0.002822876
250,0.25,0.0105667114,0.0065994263
251,0.251,0.0044631958,0.0104904175
252,0.252,-0.0077056885,0.011138916
253,0.253,-0.0008773804,0.0039291382000000005
254,0.254,-0.0018692017,0.0054931641000000005
255,0.255,-0.0051879883,-0.015411377
256,0.256,-0.0016021729,-0.041809082000000004
257,0.257,0.0090026855,-0.0591659546
258,0.258,0.0071716309,-0.0481414795
259,0.259,-0.0007247925,-0.045166015600000005
260,0.26,0.0000762939,-0.0285339355
261,0.261,-0.0075531006,0.0017929077
262,0.262,0.0021743774,0.0118637085
263,0.263,0.009117126500000001,0.015029907200000001
264,0.264,0.0022506714000000002,0.0164794922
265,0.265,0.0017166138000000001,0.024032592800000002
266,0.266,-0.0000762939,0.0242996216
267,0.267,0.0008010864,0.042915344200000004
268,0.268,0.0015258789000000001,0.0537490845
269,0.269,0.0037765503,0.0562667847
270,0.27,0.0077056885,0.0617980957
271,0.271,0.0061798096,0.061912536600000005
272,0.272,0.0028610229000000003,0.0587463379
273,0.273,0.0030136108,0.059661865200000004
274,0.274,0.0038146973000000002,0.057220459
275,0.275,-0.0014877319,0.0547027588
276,0.276,0.0041198730000000005,0.053024292
277,0.277,0.0025558472,0.0529098511
278,0.278,-0.0008010864,0.047378540000000004
279,0.279,0.0010299683000000001,0.0512695312
280,0.28,-0.0043869019,0.0480270386
281,0.281,-0.0037765503,0.0489044189
282,0.28200000000000003,0.0094985962,0.0428771973
283,0.28300000000000003,0.012855529800000001,0.046081543
284,0.28400000000000003,-0.0010299683000000001,0.0435638428
285,0.28500000000000003,-0.0074005127,0.0425338745
286,0.28600000000000003,0.0034332275000000002,0.047950744600000005
287,0.28700000000000003,-0.00030517580000000003,0.0360107422
288,0.28800000000000003,-0.0090408325,0.0427627563
289,0.289,-0.0018692017,0.037727356000000004
290,0.29,-0.0068664551,0.038604736300000005
291,0.291,-0.0017547607,0.035667419400000004
292,0.292,-0.0050354004,0.037345886200000004
293,0.293,-0.0048446655,0.0357437134
294,0.294,0.0004577637,0.0347137451
295,0.295,0.0165939331,0.0351333618
296,0.296,0.0146484375,0.0322341919
297,0.297,0.0247192383,0.0308990479
298,0.298,0.0170135498,0.0315856934
299,0.299,0.0037765503,0.028991699200000002
300,0.30000000000000004,-0.010032653800000001,0.0303649902
301,0.301,-0.0214004517,0.027046203600000002
302,0.302,-0.0080108643,0.0292205811
303,0.303,-0.0048446655,0.0277328491
304,0.304,-0.016860961900000002,0.0307846069
305,0.305,-0.0159072876,0.0267791748
306,0.306,-0.0104141235,0.0286865234
307,0.307,-0.0174331665,0.0256729126
308,0.308,-0.0064468384,0.022315979
309,0.309,-0.0037765503,-0.0270843506
310,0.31,0.0051116943000000005,-0.0395965576
311,0.311,0.0122451782,-0.029563903800000003
312,0.312,0.0155258179,-0.0564956665
313,0.313,-0.0022506714000000002,-0.0830459595
314,0.314,-0.0011444092,-0.1170349121
315,0.315,0.033569335900000004,-0.1737594604
316,0.316,0.0344848633,-0.2153396606
317,0.317,0.014839172400000001,-0.2376556396
318,0.318,0.0056838989000000005,-0.2183532715
319,0.319,0.0077056885,-0.1360321045
320,0.32,-0.0046157837,-0.0522232056
321,0.321,0.024032592800000002,0.012626647900000001
322,0.322,0.0077438354,0.0260162354
323,0.323,-0.0354003906,0.0386428833
324,0.324,-0.0484466553,0.0495147705
325,0.325,-0.022277832,0.043907165500000005
326,0.326,-0.0136566162,0.0721740723
327,0.327,-0.011177063000000001,0.09243011470000001
328,0.328,-0.0138473511,0.0643157959
329,0.329,-0.0235366821,-0.031890869100000004
330,0.33,-0.0172805786,-0.0774002075
331,0.331,-0.0093841553,-0.1011276245
332,0.332,0.0008010864,-0.1044845581
333,0.333,-0.006904602100000001,-0.0490951538
334,0.334,-0.0017929077,0.01537323
335,0.335,0.0122451782,0.049171447800000004
336,0.336,0.0226593018,0.0679397583
337,0.337,0.0155639648,0.0776672363
338,0.338,-0.0013351440000000001,0.12172698970000001
339,0.339,-0.0171279907,0.191078186
340,0.34,-0.0145721436,0.14690399170000001
341,0.341,0.0054168701,0.0659942627
342,0.342,-0.018730163600000002,-0.026473999
343,0.343,-0.0357437134,-0.0720977783
344,0.34400000000000003,-0.0374603271,-0.10387420650000001
345,0.34500000000000003,-0.0305557251,-0.0814437866
346,0.34600000000000003,-0.0060272217,-0.065536499
347,0.34700000000000003,0.0022888184,-0.0659561157
348,0.34800000000000003,-0.0130844116,-0.0590896606
349,0.34900000000000003,-0.0368118286,-0.1572418213
350,0.35000000000000003,-0.0422668457,-0.2006912231
351,0.35100000000000003,-0.0291061401,-0.1762771606
352,0.352,-0.0067901611,-0.0714492798
353,0.353,0.02784729,-0.0191116333
354,0.354,0.0258255005,0.0159454346
355,0.355,0.005607605000000001,0.0656509399
356,0.356,-0.0233078003,0.1064682007
357,0.357,-0.0428009033,0.12897491460000002
358,0.358,-0.065536499,0.1419830322
359,0.359,-0.0844955444,0.1056289673
360,0.36,-0.0452423096,0.1050186157
361,0.361,0.0075912476,0.0526046753
362,0.362,0.023651123000000003,-0.0615310669
363,0.363,0.0042724609,-0.0806808472
364,0.364,-0.0010299683000000001,-0.0922775269
365,0.365,0.023193359400000002,-0.058135986300000005
366,0.366,0.0374221802,-0.0024414062
367,0.367,0.0601577759,0.0559997559
368,0.368,0.061759948700000004,0.060195922900000004
369,0.369,0.0421142578,0.0468063354
370,0.37,0.015411377,0.062828064
371,0.371,-0.0102615356,0.0524902344
372,0.372,0.0024414062,0.0360107422
373,0.373,0.032310485800000004,0.0010299683000000001
374,0.374,0.053253173800000005,-0.0249099731
375,0.375,0.0286865234,-0.0130844116
376,0.376,0.0207519531,-0.0337600708
377,0.377,-0.0008010864,-0.0325393677
378,0.378,-0.0178146362,0.0205230713
379,0.379,0.0106048584,0.0644683838
380,0.38,0.040969848600000004,0.0823974609
381,0.381,0.0011062622,0.0741577148
382,0.382,-0.047454834,0.0247955322
383,0.383,-0.0564956665,-0.0093841553
384,0.384,-0.0799179077,0.0170135498
385,0.385,-0.0944519043,0.1427459717
386,0.386,-0.0325393677,0.1684570312
387,0.387,0.050888061500000005,0.1873779297
388,0.388,0.0743484497,0.147857666
389,0.389,0.0635528564,0.0592803955
390,0.39,0.046119689900000004,0.03074646
391,0.391,0.020942688,-0.0113296509
392,0.392,0.009765625,-0.1211166382
393,0.393,0.0213623047,-0.2336883545
394,0.394,0.0072479248000000005,-0.334777832
395,0.395,-0.0034332275000000002,-0.3448486328
396,0.396,0.0085067749,-0.371055603
397,0.397,0.0007247925,-0.4330825806
398,0.398,-0.0021362305,-0.31547546390000003
399,0.399,0.0172042847,-0.1982116699
400,0.4,-0.0071716309,-0.0832366943
401,0.401,-0.048370361300000005,-0.0203323364
402,0.402,-0.1155471802,0.008049011200000001
403,0.403,-0.1273345947,0.1068878174
404,0.404,-0.0923156738,0.1248931885
405,0.405,-0.057220459,0.1382446289
406,0.406,-0.0001144409,0.2173233032
407,0.40700000000000003,0.0387191772,0.1870727539
408,0.40800000000000003,0.0783920288,0.0649261475
409,0.40900000000000003,0.0625610352,0.0250244141
410,0.41000000000000003,0.0378799438,0.0336074829
411,0.41100000000000003,0.017471313500000002,0.0492858887
412,0.41200000000000003,0.0020599365000000002,0.0188827515
413,0.41300000000000003,-0.007019043000000001,-0.0595092773
414,0.41400000000000003,-0.0019454956,-0.09201049800000001
415,0.41500000000000004,-0.0026702881000000003,-0.0947189331
416,0.41600000000000004,-0.0093460083,-0.009613037100000001
417,0.417,-0.0198745728,0.0986862183
418,0.418,-0.0141525269,0.0923156738
419,0.419,0.048637390100000004,0.0578308105
420,0.42,0.0760650635,0.052413940400000004
421,0.421,0.0699615479,0.0317382812
422,0.422,0.059242248500000004,0.0229644775
423,0.423,0.0359344482,0.0918579102
424,0.424,-0.0082397461,0.1461410522
425,0.425,0.011711120600000001,0.0494384766
426,0.426,0.034141540500000005,-0.17620086670000001
427,0.427,0.034141540500000005,-0.3546524048
428,0.428,0.0060653687000000005,-0.39844512940000004
429,0.429,-0.0345611572,-0.3597259521
430,0.43,-0.0638580322,-0.2882385254
431,0.431,-0.0337600708,-0.1945495605
432,0.432,0.015296936,-0.058555603000000005
433,0.433,0.028724670400000003,-0.0252151489
434,0.434,0.0273513794,0.0420379639
435,0.435,0.030708313,0.132598877
436,0.436,0.0328063965,0.28598785400000004
437,0.437,0.0270843506,0.3666687012
438,0.438,0.0244903564,0.3344726562
439,0.439,0.0245666504,0.138168335
440,0.44,0.0035095215,0.0032424927000000003
441,0.441,-0.0175094604,-0.0053787231
442,0.442,-0.0434112549,0.0345993042
443,0.443,-0.0485610962,0.14553070070000002
444,0.444,-0.0546264648,0.1958084106
445,0.445,-0.0765228271,0.2138137817
446,0.446,-0.1295471191,0.24066925050000001
447,0.447,-0.14705657960000001,0.14766693120000002
448,0.448,-0.1363754272,0.1427459717
449,0.449,0.1345062256,0.1513671875
450,0.45,0.22296905520000002,0.0067138672
451,0.451,0.1092910767,-0.038146972700000004
452,0.452,0.0499725342,-0.0729370117
453,0.453,0.033149719200000004,-0.0009155273000000001
454,0.454,0.027656555200000002,0.0696563721
455,0.455,0.0150680542,0.10917663570000001
456,0.456,0.0116348267,-0.036506652800000004
457,0.457,0.0220489502,-0.0548553467
458,0.458,0.0031661987,0.0402069092
459,0.459,0.0190734863,0.0392150879
460,0.46,0.022773742700000002,0.0435256958
461,0.461,-0.0016403198000000002,0.0429534912
462,0.462,-0.0256347656,0.0415039062
463,0.463,-0.0286483765,0.041389465300000004
464,0.464,-0.0186538696,0.0412750244
465,0.465,-0.009117126500000001,0.0068283081
466,0.466,-0.0212097168,0.0839996338
467,0.467,-0.0298690796,0.11726379390000001
468,0.468,-0.022315979,0.1842498779
469,0.46900000000000003,-0.051155090300000004,0.1412963867
470,0.47000000000000003,-0.0710296631,0.0257492065
471,0.47100000000000003,-0.0453948975,-0.0929641724
472,0.47200000000000003,-0.0062942505,-0.20626068120000002
473,0.47300000000000003,-0.006942749000000001,-0.2602767944
474,0.47400000000000003,-0.0229644775,-0.1826095581
475,0.47500000000000003,-0.0385284424,-0.09731292720000001
476,0.47600000000000003,-0.0109481812,-0.0467300415
477,0.47700000000000004,0.022315979,-0.0062179565
478,0.47800000000000004,0.0258636475,0.0543212891
479,0.47900000000000004,0.020866394,0.08670806880000001
480,0.48,-0.0011825562,0.025138855
481,0.481,-0.018196106,-0.0010681152
482,0.482,-0.0238800049,0.0515365601
483,0.483,-0.011100769,0.0300979614
484,0.484,0.0012588501,-0.053672790500000005
485,0.485,-0.0025558472,-0.1670837402
486,0.486,0.0103378296,-0.4847335815
487,0.487,0.028152465800000002,-0.5163192749000001
488,0.488,0.0381088257,-0.30811309810000004
489,0.489,0.0221252441,-0.1541137695
490,0.49,0.026130676300000003,-0.0217056274
491,0.491,0.0263214111,0.0357055664
492,0.492,0.0009536743,0.0339126587
493,0.493,-0.009117126500000001,0.1503753662
494,0.494,-0.0098419189,0.26634216310000003
495,0.495,-0.0156784058,0.122833252
496,0.496,-0.0021362305,-0.0663757324
497,0.497,-0.0061416626,-0.2263641357
498,0.498,-0.028495788600000002,-0.22838592530000001
499,0.499,-0.0087356567,-0.1033782959
500,0.5,-0.0145721436,-0.0491333008
501,0.501,-0.008468627900000001,0.040245056200000004
502,0.502,-0.0219726562,0.1467132568
503,0.503,-0.0233078003,0.259552002
504,0.504,-0.0106811523,0.32505035400000004
505,0.505,0.007858276400000001,0.3211593628
506,0.506,0.0113296509,0.2870559692
507,0.507,0.015296936,0.2407836914
508,0.508,0.0103759766,0.14163970950000002
509,0.509,0.0008010864,-0.0033569336
510,0.51,0.0191116333,-0.1119995117
511,0.511,0.0119400024,-0.0830459595
512,0.512,0.0155639648,-0.0228500366
513,0.513,-0.028991699200000002,-0.0742721558
514,0.514,-0.1070404053,-0.1624679565
515,0.515,-0.1232147217,-0.23006439210000001
516,0.516,-0.0799179077,-0.354309082
517,0.517,-0.0646591187,-0.4019546509
518,0.518,-0.0326538086,-0.290184021
519,0.519,-0.0296401978,-0.14430999760000002
520,0.52,-0.0188827515,-0.0295257568
521,0.521,0.0244903564,0.12004852290000001
522,0.522,0.0314331055,0.2110671997
523,0.523,0.0325012207,0.15346527100000001
524,0.524,0.0379180908,0.1035690308
525,0.525,0.0423049927,-0.0134277344
526,0.526,0.0485992432,-0.2911758423
527,0.527,0.0318145752,-0.4204940796
528,0.528,-0.0050354004,-0.4518127441
529,0.529,0.0213623047,-0.4098129272
530,0.53,0.018310546900000002,-0.2954483032
531,0.531,0.0109863281,-0.21114349370000002
532,0.532,0.0218200684,-0.12584686280000001
533,0.533,0.039863586400000005,0.1080703735
534,0.534,0.052795410200000004,0.25016784670000003
535,0.535,0.0594711304,0.3494262695
536,0.536,0.0358200073,0.4417419434
537,0.537,0.0169372559,0.5338668823
538,0.538,0.0300598145,0.4778671265
539,0.539,0.0358963013,0.40485382080000004
540,0.54,0.0225067139,0.39649963380000003
541,0.541,-0.013465881300000001,0.35270690920000003
542,0.542,-0.043754577600000004,0.1912307739
543,0.543,-0.0661849976,0.1103210449
544,0.544,-0.0509643555,0.0379943848
545,0.545,-0.025291442900000002,0.0014495850000000002
546,0.546,-0.0141143799,-0.0289535522
547,0.547,-0.01953125,-0.1048278809
548,0.548,-0.023689270000000002,-0.1964569092
549,0.549,-0.024108886700000002,-0.1315307617
550,0.55,-0.0145721436,0.0908660889
551,0.551,0.0116348267,0.2383422852
552,0.552,0.012321472200000001,0.16689300540000002
553,0.553,-0.029258728,0.0759124756
554,0.554,-0.0368881226,-0.1927947998
555,0.555,-0.0358200073,-0.37544250490000003
556,0.556,-0.0428390503,-0.49263000490000003
557,0.557,-0.0924682617,-0.5110549927
558,0.558,-0.0018310547000000002,-0.3337478638
559,0.559,0.031089782700000002,-0.0205230713
560,0.56,-0.0426864624,0.045013427700000004
561,0.561,-0.0297927856,0.0701904297
562,0.562,0.0706481934,0.2386856079
563,0.5630000000000001,0.0704574585,0.2686309814
564,0.5640000000000001,0.0543212891,0.2606201172
565,0.5650000000000001,-0.006332397500000001,0.25337219240000003
566,0.5660000000000001,-0.0456619263,0.24890899660000002
567,0.5670000000000001,0.0212478638,0.2410888672
568,0.5680000000000001,0.046043396,0.2336883545
569,0.5690000000000001,-0.023612976100000002,-0.019645690900000002
570,0.5700000000000001,-0.0511932373,-0.21739959720000002
571,0.5710000000000001,0.0002670288,-0.2618789673
572,0.5720000000000001,0.0020980835,-0.1990509033
573,0.5730000000000001,-0.1192474365,-0.0984573364
574,0.5740000000000001,-0.2530288696,0.0730133057
575,0.5750000000000001,-0.2735137939,0.20145416260000001
576,0.5760000000000001,-0.20328521730000002,0.2107620239
577,0.577,0.2199554443,0.20526885990000002
578,0.578,0.4243087769,0.200843811
579,0.579,0.3332138062,0.1966094971
580,0.58,0.2450561523,0.19252777100000001
581,0.581,0.191192627,0.18474578860000002
582,0.582,0.0060272217,0.1861572266
583,0.583,-0.23677825930000002,0.1775360107
584,0.584,-0.3422164917,0.1712799072
585,0.585,-0.1696777344,0.1707077026
586,0.586,-0.1396942139,0.1665115356
587,0.587,-0.1391601562,0.1605987549
588,0.588,0.09620666500000001,0.1583099365
589,0.589,0.5199432373,-0.0611495972
590,0.59,0.7079696655000001,-0.0958251953
591,0.591,0.5448150635,-0.1515960693
592,0.592,-0.0026702881000000003,-0.16452789310000002
593,0.593,-0.2378845215,-0.1486206055
594,0.594,-0.2376937866,-0.0678634644
595,0.595,0.013275146500000001,0.0157546997
596,0.596,0.11070251460000001,0.08922576900000001
597,0.597,-0.007095336900000001,0.08934021
598,0.598,-0.0896453857,0.0762176514
599,0.599,-0.059814453100000005,0.0595855713
600,0.6000000000000001,-0.2480316162,0.0202941895
601,0.601,-0.2778625488,0.0259017944
602,0.602,-0.1044845581,-0.065612793
603,0.603,-0.0207138062,-0.2080535889
604,0.604,-0.0282669067,-0.33203125
605,0.605,0.0015258789000000001,-0.3539657593
606,0.606,0.0194168091,-0.4071044922
607,0.607,0.0468826294,-0.4640197754
608,0.608,0.0149917603,-0.4166030884
609,0.609,-0.0531387329,-0.3118515015
610,0.61,-0.1486968994,-0.19046783450000002
611,0.611,-0.205039978,-0.0296401978
612,0.612,-0.1613616943,0.1300811768
613,0.613,-0.0454711914,0.15003204350000002
614,0.614,-0.043754577600000004,0.15476226810000002
615,0.615,0.0650024414,0.0671005249
616,0.616,0.4975891113,-0.040512085
617,0.617,0.48999786380000004,-0.0497436523
618,0.618,0.1709747314,-0.1076507568
619,0.619,-0.0605773926,-0.10738372800000001
620,0.62,-0.2454376221,-0.0565719604
621,0.621,-0.2423095703,0.0094985962
622,0.622,-0.0950622559,0.0456237793
623,0.623,-0.0211334229,0.1624679565
624,0.624,-0.0196838379,0.22800445560000002
625,0.625,-0.0102615356,0.34229278560000004
626,0.626,-0.0140380859,0.4016113281
627,0.627,0.0105667114,0.4023742676
628,0.628,0.004196167000000001,0.3307723999
629,0.629,-0.0342178345,0.2846908569
630,0.63,-0.0684738159,0.1991653442
631,0.631,-0.0924682617,0.061340332000000004
632,0.632,-0.0804901123,-0.15445709230000002
633,0.633,-0.014915466300000001,-0.21339416500000002
634,0.634,-0.0169754028,-0.175743103
635,0.635,-0.0189590454,-0.1533126831
636,0.636,-0.009117126500000001,-0.20275115970000002
637,0.637,-0.004196167000000001,-0.2787017822
638,0.638,0.001373291,-0.3270339966
639,0.639,0.0458908081,-0.3277206421
640,0.64,0.0196075439,-0.3182983398
641,0.641,-0.0674819946,-0.23967742920000001
642,0.642,-0.1189804077,-0.1699829102
643,0.643,-0.1607131958,-0.1000595093
644,0.644,-0.14835357670000002,0.0608825684
645,0.645,-0.11436462400000001,0.2450942993
646,0.646,0.0562667847,0.2084350586
647,0.647,0.2389144897,0.1737213135
648,0.648,0.21896362300000002,0.1346206665
649,0.649,0.1401901245,0.0274276733
650,0.65,0.049896240200000004,0.0065612793
651,0.651,-0.07247924800000001,-0.008697509800000001
652,0.652,-0.0972747803,-0.0659561157
653,0.653,0.0065994263,-0.0597000122
654,0.654,0.0336456299,-0.042495727500000004
655,0.655,0.052375793500000004,-0.0365447998
656,0.656,0.1649475098,-0.0952529907
657,0.657,-0.0726699829,-0.1036453247
658,0.658,-0.2020263672,-0.1054382324
659,0.659,-0.052986145000000005,-0.1206970215
660,0.66,0.0215911865,-0.1458740234
661,0.661,-0.0225067139,-0.23220062260000002
662,0.662,-0.0667953491,-0.158996582
663,0.663,0.025367736800000002,-0.0803375244
664,0.664,0.1209640503,-0.1107788086
665,0.665,0.11280059810000001,0.023727417
666,0.666,0.041389465300000004,0.0755691528
667,0.667,0.000038147,0.1114273071
668,0.668,0.021324157700000002,0.2067184448
669,0.669,-0.0235366821,0.3842544556
670,0.67,-0.0848770142,0.3468704224
671,0.671,-0.056877136200000004,0.1341629028
672,0.672,0.030250549300000002,-0.1012420654
673,0.673,0.057983398400000004,-0.2061843872
674,0.674,0.041084289600000004,-0.2057266235
675,0.675,0.049171447800000004,-0.22174835210000002
676,0.676,0.0457763672,-0.1644134521
677,0.677,0.0135421753,-0.0355529785
678,0.678,0.1128768921,0.0826644897
679,0.679,0.10471343990000001,0.18238067630000002
680,0.68,0.1139068604,0.1668167114
681,0.681,0.12599945070000002,0.055351257300000005
682,0.682,-0.0024414062,0.002746582
683,0.683,-0.0428390503,0.0053024292
684,0.684,-0.018310546900000002,0.0006103516000000001
685,0.685,0.0074768066,-0.0124740601
686,0.686,-0.009803772,-0.0201416016
687,0.687,-0.0714492798,-0.020980835
688,0.6880000000000001,-0.0905609131,-0.050239563
689,0.6890000000000001,-0.0882720947,-0.0500869751
690,0.6900000000000001,-0.0988006592,-0.0702285767
691,0.6910000000000001,-0.0798797607,-0.089263916
692,0.6920000000000001,-0.048789978000000005,-0.0757217407
693,0.6930000000000001,-0.0242996216,-0.0219726562
694,0.6940000000000001,-0.0955200195,0.0466156006
695,0.6950000000000001,-0.2142715454,0.1149368286
696,0.6960000000000001,-0.19649505620000002,0.1035690308
697,0.6970000000000001,-0.083770752,0.0263214111
698,0.6980000000000001,0.16338348390000001,-0.0546264648
699,0.6990000000000001,0.1682281494,-0.10707855220000001
700,0.7000000000000001,0.033493042,-0.13507843020000002
701,0.7010000000000001,-0.0323867798,-0.1476287842
702,0.7020000000000001,0.10025024410000001,-0.1031494141
703,0.7030000000000001,0.1843261719,-0.0307846069
704,0.704,0.14026641850000002,-0.0114059448
705,0.705,0.0221252441,0.0260162354
706,0.706,-0.035667419400000004,0.0216293335
707,0.707,0.061492919900000005,0.047492981000000004
708,0.708,0.09159088130000001,0.11909484860000001
709,0.709,0.0680160522,0.1512145996
710,0.71,-0.016784668000000003,0.10429382320000001
711,0.711,-0.0643157959,0.041656494100000004
712,0.712,-0.0881576538,0.0024414062
713,0.713,-0.0841522217,-0.023727417
714,0.714,-0.013923645,-0.0359344482
715,0.715,0.0755691528,-0.025138855
716,0.716,0.053405761700000005,-0.002784729
717,0.717,0.0394821167,-0.0038528442000000003
718,0.718,0.099105835,-0.0067138672
719,0.719,0.1927566528,-0.0089263916
720,0.72,0.34767150880000003,-0.0054931641000000005
721,0.721,0.2936935425,-0.0116348267
722,0.722,0.0788879395,-0.0435256958
723,0.723,-0.1609039307,-0.054397583000000006
724,0.724,-0.32875061040000003,-0.0701904297
725,0.725,-0.465965271,-0.0633239746
726,0.726,-0.4105758667,-0.0565719604
727,0.727,-0.2493286133,-0.0684738159
728,0.728,-0.29869079590000003,-0.0325775146
729,0.729,-0.1854705811,0.0350570679
730,0.73,-0.0032806396000000003,0.0808334351
731,0.731,0.0615310669,0.0860595703
732,0.732,0.1856613159,0.0713348389
733,0.733,0.33069610600000005,0.020980835
734,0.734,0.1221847534,0.0118255615
735,0.735,0.0297164917,0.029754638700000002
736,0.736,0.0005722046,0.0426864624
737,0.737,0.0011825562,0.0242996216
738,0.738,0.0268936157,0.024871826200000002
739,0.739,0.0173187256,0.038146972700000004
740,0.74,0.007019043000000001,0.0008392334
741,0.741,-0.0028610229000000003,-0.026206970200000002
742,0.742,-0.037193298300000004,0.0169754028
743,0.743,-0.0569915771,0.0304412842
744,0.744,-0.0489044189,0.0121688843
745,0.745,-0.0806045532,-0.0455093384
746,0.746,-0.0915145874,-0.0972366333
747,0.747,-0.0270080566,-0.1390457153
748,0.748,0.0485610962,-0.1142120361
749,0.749,0.1731109619,-0.0702667236
750,0.75,0.2432632446,-0.050888061500000005
751,0.751,0.0952529907,-0.0399780273
752,0.752,-0.1061630249,-0.0274276733
753,0.753,-0.0302886963,0.0032043457
754,0.754,-0.0425338745,0.0197219849
755,0.755,-0.0283432007,0.0308227539
756,0.756,0.052795410200000004,0.0193405151
757,0.757,0.028991699200000002,0.0161743164
758,0.758,-0.0274276733,0.0015258789000000001
759,0.759,-0.0579452515,-0.0027084351
760,0.76,-0.0559616089,-0.025711059600000002
761,0.761,-0.11337280270000001,-0.0263214111
762,0.762,-0.118637085,-0.032882690400000004
763,0.763,-0.0717544556,-0.032081604
764,0.764,-0.0806808472,-0.0230789185
765,0.765,0.012931823700000001,-0.0033187866
766,0.766,0.1951217651,0.0276184082
767,0.767,0.21793365480000002,0.0829696655
768,0.768,0.1028442383,0.1316833496
769,0.769,0.0090789795,0.1077651978
770,0.77,0.0038528442000000003,0.0917816162
771,0.771,-0.0970840454,0.0507736206
772,0.772,-0.0984191895,0.026206970200000002
773,0.773,-0.0601577759,0.031318664600000004
774,0.774,0.0620651245,0.0361251831
775,0.775,0.2021789551,-0.0145721436
776,0.776,0.12630462650000002,-0.0769805908
777,0.777,0.1161956787,-0.10601043700000001
778,0.778,0.2143859863,-0.0798034668
779,0.779,0.11714935300000001,-0.0698852539
780,0.78,-0.1247787476,-0.0628662109
781,0.781,-0.22495269780000002,-0.0338363647
782,0.782,-0.0944519043,-0.0350189209
783,0.783,-0.0036621094000000003,-0.0260543823
784,0.784,0.0065994263,-0.0184631348
785,0.785,-0.018119812000000002,-0.0106811523
786,0.786,-0.0831985474,-0.0076675415000000005
787,0.787,-0.1137161255,0.0045013428000000005
788,0.788,-0.177230835,-0.0046539307
789,0.789,-0.2339553833,-0.0157165527
790,0.79,-0.2323532104,-0.0975418091
791,0.791,-0.14133453370000001,-0.12046813960000001
792,0.792,0.1304626465,-0.1118850708
793,0.793,0.3192901611,-0.0807571411
794,0.794,0.2116012573,-0.0709915161
795,0.795,0.1081466675,-0.0608825684
796,0.796,0.0550842285,0.0038146973000000002
797,0.797,-0.0253295898,0.0853729248
798,0.798,-0.05161285400000001,0.2238845825
799,0.799,-0.0239944458,0.1792907715
800,0.8,0.006942749000000001,0.078163147
801,0.801,-0.0709915161,0.0677108765
802,0.802,-0.1844024658,0.0927734375
803,0.803,-0.3717041016,0.1080703735
804,0.804,-0.4627227783,0.0981903076
805,0.805,-0.0790405273,0.0554275513
806,0.806,0.3434753418,0.0258636475
807,0.807,0.39676666260000004,0.0006866455
808,0.808,0.5033111572,-0.010871887200000001
809,0.809,0.39203643800000004,-0.0053787231
810,0.81,0.2671813965,-0.0242614746
811,0.811,0.1516342163,-0.061912536600000005
812,0.812,-0.1443862915,-0.085105896
813,0.8130000000000001,-0.283164978,-0.0746536255
814,0.8140000000000001,-0.2741622925,-0.0415039062
815,0.8150000000000001,-0.20229339600000001,-0.0131225586
816,0.8160000000000001,-0.0905227661,-0.013046264600000001
817,0.8170000000000001,0.16185760500000002,-0.0151443481
818,0.8180000000000001,0.24433135990000002,-0.0201034546
819,0.8190000000000001,0.19687652590000002,-0.0173950195
820,0.8200000000000001,0.1509094238,0.002784729
821,0.8210000000000001,-0.0698852539,-0.0060653687000000005
822,0.8220000000000001,-0.2843856812,-0.0024032593
823,0.8230000000000001,-0.28083801270000003,-0.0165939331
824,0.8240000000000001,-0.2215194702,-0.00831604
825,0.8250000000000001,-0.2992248535,-0.0025558472
826,0.8260000000000001,-0.3036117554,0.0045394897000000005
827,0.8270000000000001,-0.1291656494,0.0047683716
828,0.8280000000000001,-0.0828933716,-0.011100769
829,0.8290000000000001,0.0239181519,-0.020484924300000002
830,0.8300000000000001,0.060615539600000004,-0.0309753418
831,0.8310000000000001,-0.0373840332,-0.0358581543
832,0.8320000000000001,-0.1467132568,-0.0140380859
833,0.833,-0.08712768550000001,0.027885437000000002
834,0.834,0.1080322266,0.020065307600000002
835,0.835,0.4760742188,0.0436401367
836,0.836,0.6998443604,0.029830932600000002
837,0.837,0.5962753296000001,0.0008010864
838,0.838,0.5826950073,-0.0086212158
839,0.839,0.4152297974,-0.0032424927000000003
840,0.84,0.0695419312,0.0001144409
841,0.841,-0.1933288574,-0.0046920776
842,0.842,-0.34259796140000004,0.0043106079
843,0.843,-0.3355789185,0.0049209595000000005
844,0.844,-0.177230835,0.0050354004
845,0.845,-0.0588607788,-0.0018310547000000002
846,0.846,-0.1022338867,0.005340576200000001
847,0.847,-0.1166915894,0.0032424927000000003
848,0.848,-0.1013183594,0.001411438
849,0.849,-0.1481246948,-0.0028991699
850,0.85,-0.414390564,-0.0164794922
851,0.851,-0.5088043213,-0.01121521
852,0.852,-0.33958435060000003,0.019493103
853,0.853,-0.1358795166,0.0329589844
854,0.854,-0.037307739300000003,0.0214004517
855,0.855,0.2233123779,0.008392334000000001
856,0.856,0.3768539429,0.0136566162
857,0.857,0.244102478,0.013580322300000001
858,0.858,0.0894546509,0.018119812000000002
859,0.859,0.0665664673,0.0136566162
860,0.86,0.0923538208,0.012321472200000001
861,0.861,0.12935638430000002,0.011711120600000001
862,0.862,0.1434326172,-0.0449752808
863,0.863,0.2533340454,-0.0378036499
864,0.864,0.13813018800000001,-0.025978088400000002
865,0.865,-0.2584838867,-0.001411438
866,0.866,-0.5286026001,0.0071334839
867,0.867,-0.3948974609,0.0034713745000000003
868,0.868,0.025787353500000002,0.0090408325
869,0.869,0.27713775630000004,0.0093460083
870,0.87,0.44208526610000004,0.0079345703
871,0.871,0.5751419067,0.0100708008
872,0.872,0.3858184814,0.008468627900000001
873,0.873,0.159072876,0.0082397461
874,0.874,-0.033149719200000004,0.0073623657
875,0.875,-0.4791259766,-0.0055313110000000006
876,0.876,-0.48923492430000004,-0.0064849854000000005
877,0.877,-0.1182174683,-0.0048446655
878,0.878,0.0792694092,0.0140380859
879,0.879,0.0938415527,0.014495849600000001
880,0.88,0.1380157471,0.0007247925
881,0.881,0.1823043823,0.0006103516000000001
882,0.882,0.0955963135,-0.0102615356
883,0.883,0.0595855713,-0.0163269043
884,0.884,0.1807785034,-0.015411377
885,0.885,0.15796661380000002,0.0070571899
886,0.886,-0.0658035278,0.0128936768
887,0.887,-0.2159881592,0.0024032593
888,0.888,-0.2436828613,-0.025787353500000002
889,0.889,-0.30708312990000003,-0.0243759155
890,0.89,-0.2429199219,-0.0156021118
891,0.891,-0.0794219971,0.007324218800000001
892,0.892,0.026206970200000002,-0.0006103516000000001
893,0.893,-0.0582504272,-0.0054168701
894,0.894,0.10429382320000001,-0.0151443481
895,0.895,0.0407791138,-0.0168991089
896,0.896,-0.1385116577,-0.0215911865
897,0.897,-0.2227020264,-0.0109100342
898,0.898,-0.3084945679,0.0020599365000000002
899,0.899,-0.15155792240000002,0.00415802
900,0.9,-0.0905990601,0.0067520142
901,0.901,0.028152465800000002,0.0052261353
902,0.902,0.1878356934,-0.0088119507
903,0.903,-0.0839614868,-0.0055313110000000006
904,0.904,-0.3721618652,-0.0018692017
905,0.905,-0.153503418,-0.0011444092
906,0.906,0.143737793,0.0022888184
907,0.907,0.1699829102,0.0020980835
908,0.908,0.2494812012,0.0017166138000000001
909,0.909,0.2614212036,-0.0141143799
910,0.91,0.3583908081,-0.0015258789000000001
911,0.911,0.34461975100000003,0.0162506104
912,0.912,0.18054962160000002,0.0051116943000000005
913,0.913,-0.0197982788,0.0004959106
914,0.914,-0.0930023193,-0.0020217896
915,0.915,-0.2006912231,-0.0082015991
916,0.916,-0.1552200317,-0.0106430054
917,0.917,-0.0268936157,0.0007247925
918,0.918,0.0671005249,0.0087738037
919,0.919,0.1868438721,-0.0077056885
920,0.92,0.2195739746,-0.016784668000000003
921,0.921,0.0856018066,-0.0247573853
922,0.922,-0.0624847412,-0.0188827515
923,0.923,-0.108833313,0.013465881300000001
924,0.924,0.0853347778,0.032730102500000004
925,0.925,0.1607894897,0.016632080100000002
926,0.926,0.0643920898,0.0039291382000000005
927,0.927,0.1215362549,-0.010032653800000001
928,0.928,0.1467895508,-0.013694763200000001
929,0.929,0.0172042847,-0.012931823700000001
930,0.93,-0.1085281372,0.0026702881000000003
931,0.931,-0.0103378296,-0.0013351440000000001
932,0.932,0.0775146484,-0.0073623657
933,0.933,-0.0190353394,-0.0061035156000000005
934,0.934,-0.0123596191,-0.0057220459
935,0.935,0.13896942140000001,-0.0052642822
936,0.936,-0.0038909912,0.0074005127
937,0.937,-0.2296066284,0.0121307373
938,0.9380000000000001,-0.1815032959,0.0040435791
939,0.9390000000000001,-0.1081085205,0.0036621094000000003
940,0.9400000000000001,-0.09075164790000001,-0.01121521
941,0.9410000000000001,-0.1135635376,-0.002822876
942,0.9420000000000001,-0.1230239868,-0.0011062622
943,0.9430000000000001,-0.12546539310000002,0.0118637085
944,0.9440000000000001,-0.1351165771,0.0089263916
945,0.9450000000000001,-0.0635910034,0.0031661987
946,0.9460000000000001,-0.0340652466,0.0036621094000000003
947,0.9470000000000001,-0.026817321800000002,-0.0048446655
948,0.9480000000000001,-0.10833740230000001,-0.0022125244
949,0.9490000000000001,-0.1874542236,-0.0011444092
950,0.9500000000000001,-0.1947402954,0.0104904175
951,0.9510000000000001,-0.2100753784,0.008392334000000001
952,0.9520000000000001,0.0155258179,-0.0005722046
953,0.9530000000000001,0.2040100098,-0.0029373169
954,0.9540000000000001,0.1514434814,-0.010032653800000001
955,0.9550000000000001,0.2652359009,-0.0159835815
956,0.9560000000000001,0.16956329350000002,0.0053024292
957,0.9570000000000001,0.0782012939,0.0054550171
958,0.9580000000000001,0.0667190552,-0.0090026855
959,0.9590000000000001,0.0085067749,-0.0071716309
960,0.96,-0.0291824341,-0.0038146973000000002
961,0.961,0.0054931641000000005,-0.0106811523
962,0.962,0.0233078003,-0.0026321411
963,0.963,-0.0012207031,0.007514953600000001
964,0.964,-0.0060653687000000005,0.0022506714000000002
965,0.965,0.0268936157,-0.0060653687000000005
966,0.966,0.039100647,-0.0140380859
967,0.967,-0.032463073700000004,-0.0118637085
968,0.968,-0.0101089478,-0.0164031982
969,0.969,0.0484085083,0.0033569336
970,0.97,-0.13309478760000001,0.0054931641000000005
971,0.971,-0.1882171631,-0.008888244600000001
972,0.972,0.0309371948,-0.0087738037
973,0.973,0.1439285278,-0.0198364258
974,0.974,0.1058578491,-0.0234603882
975,0.975,0.0462341309,-0.0110626221
976,0.976,0.0086212158,0.00015258790000000002
977,0.977,0.0059890747,-0.0030136108
978,0.978,0.0423049927,-0.0067901611
979,0.979,0.0793457031,-0.0027084351
980,0.98,0.0748062134,-0.0050354004
981,0.981,0.0505447388,-0.0007247925
982,0.982,0.025787353500000002,0.0034332275000000002
983,0.983,-0.001373291,0.0130844116
984,0.984,-0.0220489502,0.0011444092
985,0.985,-0.0883483887,0.0028991699
986,0.986,-0.1257324219,0.005950927700000001
987,0.987,-0.17131805420000001,0.0007247925
988,0.988,-0.13996124270000002,0.006332397500000001
989,0.989,-0.058555603000000005,0.0186538696
990,0.99,0.0226593018,0.012588501
991,0.991,0.060195922900000004,0.005569458
992,0.992,0.0216674805,-0.0026702881000000003
993,0.993,-0.020828247100000002,-0.011100769
994,0.994,-0.030708313,-0.0171279907
995,0.995,0.0115585327,-0.0096893311
996,0.996,0.017471313500000002,0.0017929077
997,0.997,0.0329208374,-0.0049972534
998,0.998,0.0308227539,-0.008049011200000001
999,0.999,0.0035095215,-0.009117126500000001
1000,1,-0.0011825562,-0.0098419189
1001,1.001,-0.0010681152,0.0062179565
1002,1.002,-0.0409317017,0.0147247314
1003,1.003,-0.0423812866,0.0044631958
1004,1.004,-0.0372314453,0.0067520142
1005,1.005,-0.0559997559,-0.0059127808000000006
1006,1.006,-0.0256729126,-0.0193023682
1007,1.007,0.0008010864,-0.0218582153
1008,1.008,0.034141540500000005,0.0062561035000000004
1009,1.009,0.0735092163,0.0105667114
1010,1.01,0.0708389282,-0.0014877319
1011,1.011,0.0302886963,-0.0155639648
1012,1.012,0.0384902954,-0.012931823700000001
1013,1.013,0.0776290894,-0.0122833252
1014,1.014,0.0728225708,-0.0024032593
1015,1.015,0.0371551514,0.0145721436
1016,1.016,0.0063705444,0.0086593628
1017,1.017,-0.0269317627,0.0047683716
1018,1.018,-0.0616455078,-0.0011825562
1019,1.019,-0.0551605225,-0.005950927700000001
1020,1.02,-0.012550354000000001,-0.008049011200000001
1021,1.021,0.0185012817,0.008049011200000001
1022,1.022,0.0329971313,0.011711120600000001
1023,1.023,0.02784729,0.0040435791
1024,1.024,0.0157165527,0.0000762939
1025,1.025,0.0062179565,-0.0058746338
1026,1.026,0.0085067749,0.0033569336
1027,1.027,0.008392334000000001,0.0096511841
1028,1.028,0.015296936,0.0162887573
1029,1.029,0.0395584106,0.0203704834
1030,1.03,0.049171447800000004,0.0109100342
1031,1.031,0.0151824951,0.0128936768
1032,1.032,0.0220108032,0.023651123000000003
1033,1.033,0.0240707397,0.0116348267
1034,1.034,-0.1000595093,0.026206970200000002
1035,1.035,-0.1420974731,0.0143051147
1036,1.036,-0.0887298584,-0.0078964233
1037,1.037,-0.0375747681,-0.0108337402
1038,1.038,0.0035476685,-0.008697509800000001
1039,1.039,0.0191116333,-0.0046920776
1040,1.04,0.0065994263,-0.0064849854000000005
1041,1.041,0.0002288818,0.0017547607
1042,1.042,0.0017166138000000001,-0.0066757202000000005
1043,1.043,0.0175094604,-0.0145339966
1044,1.044,-0.000038147,-0.01537323
1045,1.045,-0.0051879883,-0.0104141235
1046,1.046,0.0001144409,-0.0030517578000000003
1047,1.047,0.004959106400000001,0.0119018555
1048,1.048,0.0032424927000000003,0.0168228149
1049,1.049,0.018081665,0.0064468384
1050,1.05,-0.0013351440000000001,0.0038909912
1051,1.051,-0.0218963623,0.0002670288
1052,1.052,-0.026969909700000003,0.0003433228
1053,1.053,-0.012016296400000001,0.0037765503
1054,1.054,-0.0051879883,0.0127029419
1055,1.055,-0.0005722046,0.0050735474000000004
1056,1.056,0.0229644775,-0.0019073486
1057,1.057,0.0112533569,-0.0043869019
1058,1.058,0.0037384033,0.0053024292
1059,1.059,0.0059890747,-0.0002288818
1060,1.06,0.005340576200000001,0.0140380859
1061,1.061,0.0027084351,0.0163650513
1062,1.062,0.0079727173,0.016860961900000002
1063,1.063,-0.0008010864,0.0082397461
1064,1.064,-0.0133132935,0.0012207031
1065,1.065,-0.0160980225,-0.0017166138000000001
1066,1.066,-0.008354187,0.0053787231
1067,1.067,-0.0220870972,0.0034713745000000003
1068,1.068,-0.015029907200000001,-0.0062179565
1069,1.069,-0.0130844116,-0.0053024292
1070,1.07,-0.0185394287,-0.0080108643
1071,1.071,-0.021514892600000002,-0.008430481
1072,1.072,-0.0267791748,0.0031661987
1073,1.073,-0.0242996216,0.0075531006
1074,1.074,-0.0287628174,0.012512207000000001
1075,1.075,-0.012855529800000001,0.0066375732
1076,1.076,-0.012626647900000001,-0.0096893311
1077,1.077,0.0058746338,-0.0074768066
1078,1.078,0.0244140625,-0.0076293945
1079,1.079,0.0255203247,0.001373291
1080,1.08,0.0008773804,0.0098419189
1081,1.081,-0.0147628784,0.011711120600000001
1082,1.082,-0.000038147,0.0024795532000000003
1083,1.083,0.005340576200000001,-0.0019836426
1084,1.084,-0.0022506714000000002,-0.005569458
1085,1.085,0.0033569336,-0.0040435791
1086,1.086,-0.0046157837,0.0077438354
1087,1.087,-0.0155639648,0.011711120600000001
1088,1.088,-0.0088500977,0.0038146973000000002
1089,1.089,-0.0168228149,-0.0047683716
1090,1.09,-0.029411315900000002,-0.0080108643
1091,1.091,-0.0364685059,-0.009613037100000001
1092,1.092,-0.0476455688,-0.0032043457
1093,1.093,-0.0286483765,0.0207138062
1094,1.094,-0.0057601929,0.0107192993
1095,1.095,0.0032043457,-0.0008392334
1096,1.096,-0.013275146500000001,-0.0085449219
1097,1.097,-0.0420379639,-0.0168991089
1098,1.098,-0.0785446167,-0.0087738037
1099,1.099,-0.0901412964,0.0043869019
1100,1.1,-0.1113128662,0.0018310547000000002
1101,1.101,-0.0854110718,-0.0134277344
1102,1.102,-0.0595855713,-0.0161743164
1103,1.103,-0.0347900391,-0.022583007800000002
1104,1.104,-0.0080871582,-0.011596679700000001
1105,1.105,0.024032592800000002,-0.0019073486
1106,1.106,0.0218200684,0.0074386597
1107,1.107,0.0090789795,0.0009918213
1108,1.108,0.0110244751,-0.0030136108
1109,1.109,-0.0299072266,-0.0094604492
1110,1.11,-0.0664901733,-0.0136184692
1111,1.111,-0.061492919900000005,-0.0151443481
1112,1.112,-0.0658035278,0.002822876
1113,1.113,-0.055732727100000004,0.00831604
1114,1.114,-0.038032531700000004,-0.0016784668
1115,1.115,-0.02784729,-0.0036621094000000003
1116,1.116,-0.0094223022,-0.0010299683000000001
1117,1.117,-0.025062561,-0.0044631958
1118,1.118,-0.0118637085,0.0037765503
1119,1.119,0.0166702271,0.0074386597
1120,1.12,0.030708313,0.0045013428000000005
1121,1.121,0.0018310547000000002,0.0079345703
1122,1.1219999999999999,-0.0471878052,0.0026702881000000003
1123,1.123,-0.0213623047,-0.0054550171
1124,1.124,0.0126647949,-0.0002670288
1125,1.125,0.0303268433,0.0112533569
1126,1.126,0.0207519531,0.0008010864
1127,1.127,0.030593872100000002,0.00831604
1128,1.1280000000000001,0.0248336792,-0.0043487549000000006
1129,1.129,0.033988952600000004,-0.0076293945
1130,1.13,0.0344467163,-0.010452270500000001
1131,1.131,0.020942688,-0.0128173828
1132,1.1320000000000001,0.0123977661,-0.0017929077
1133,1.133,0.0203704834,-0.0049972534
1134,1.134,0.0224304199,-0.014839172400000001
1135,1.135,-0.0064468384,-0.0233078003
1136,1.1360000000000001,-0.0206756592,-0.017051696800000002
1137,1.137,-0.019226074200000002,-0.0090789795
1138,1.138,-0.01953125,-0.0016403198000000002
1139,1.139,-0.0044250488,0.0038146973000000002
1140,1.1400000000000001,0.0261688232,-0.00015258790000000002
1141,1.141,0.054359436000000004,-0.0046539307
1142,1.142,0.052833557100000005,-0.0009918213
1143,1.143,0.051002502400000004,-0.0031661987
1144,1.1440000000000001,0.0415039062,-0.0053024292
1145,1.145,0.0379562378,-0.0009536743
1146,1.146,0.0361633301,0.0012588501
1147,1.147,0.0389099121,-0.0074005127
1148,1.148,0.0371551514,-0.008392334000000001
1149,1.149,0.042495727500000004,-0.0134277344
1150,1.15,0.0359725952,-0.0116348267
1151,1.151,0.0256347656,0.0086212158
1152,1.152,-0.0122833252,0.0087738037
1153,1.153,-0.017051696800000002,0.0061035156000000005
1154,1.154,-0.0088119507,-0.0071334839
1155,1.155,0.0194168091,-0.0072860718
1156,1.156,0.0472640991,-0.0174331665
1157,1.157,0.050010681200000004,-0.0133132935
1158,1.158,0.0512313843,0.010032653800000001
1159,1.159,0.0595855713,0.0019073486
1160,1.16,0.0494384766,0.0033187866
1161,1.161,0.0355911255,-0.0010299683000000001
1162,1.162,0.0128936768,-0.0128936768
1163,1.163,-0.007019043000000001,-0.0034332275000000002
1164,1.164,-0.0085067749,0.0028991699
1165,1.165,0.0032806396000000003,0.0025177002
1166,1.166,0.0252532959,0.005569458
1167,1.167,0.0168228149,0.0046539307
1168,1.168,-0.0098800659,-0.0061035156000000005
1169,1.169,-0.036087036100000004,0.0003433228
1170,1.17,-0.0128936768,-0.0004577637
1171,1.171,-0.0076675415000000005,0.0137329102
1172,1.172,-0.0106048584,0.0015640259
1173,1.173,-0.0163650513,-0.0037765503
1174,1.174,-0.0281906128,-0.0109863281
1175,1.175,-0.0537490845,-0.0175476074
1176,1.176,-0.0598907471,-0.0082015991
1177,1.177,-0.043869018600000004,-0.00415802
1178,1.178,-0.0185394287,0.002746582
1179,1.179,0.0244903564,-0.0035095215
1180,1.18,0.0503540039,-0.0036239624000000002
1181,1.181,0.0354766846,-0.0073623657
1182,1.182,0.0234985352,-0.0164031982
1183,1.183,0.0120544434,0.0014877319
1184,1.184,-0.0072860718,0.0098800659
1185,1.185,-0.001373291,0.0072097778
1186,1.186,0.0090408325,-0.0033187866
1187,1.187,0.0090408325,-0.0055313110000000006
1188,1.188,0.0009155273000000001,-0.0034713745000000003
1189,1.189,0.002822876,-0.008049011200000001
1190,1.19,-0.0012588501,0.0049209595000000005
1191,1.191,-0.0076675415000000005,0.0028991699
1192,1.192,0.0082397461,0.0014495850000000002
1193,1.193,-0.0015640259,-0.0033187866
1194,1.194,-0.0029754639,0.0008392334
1195,1.195,-0.0146865845,-0.0031661987
1196,1.196,-0.012512207000000001,-0.0037384033
1197,1.197,-0.0202560425,0.0098419189
1198,1.198,-0.0169372559,0.0042724609
1199,1.199,-0.0093841553,-0.0008010864
1200,1.2,-0.0206756592,-0.008354187
1201,1.201,-0.0086593628,-0.012321472200000001
1202,1.202,0.009307861300000001,-0.0104904175
1203,1.203,0.0133132935,0.0000762939
1204,1.204,-0.0016403198000000002,0.008468627900000001
1205,1.205,0.0099563599,-0.0022506714000000002
1206,1.206,-0.0006103516000000001,-0.0092697144
1207,1.207,-0.0030899048,-0.010452270500000001
1208,1.208,-0.0061416626,-0.0109100342
1209,1.209,-0.012435913100000001,-0.0089645386
1210,1.21,-0.007095336900000001,0.0033950806
1211,1.211,0.0030517578000000003,-0.0020980835
1212,1.212,0.0093841553,-0.002822876
1213,1.213,0.0019836426,-0.0013351440000000001
1214,1.214,0.0038528442000000003,-0.0059890747
1215,1.215,-0.0044250488,-0.0086593628
1216,1.216,-0.0163269043,0.0101470947
1217,1.217,-0.0074005127,0.0087356567
1218,1.218,0.008392334000000001,0.0016403198000000002
1219,1.219,0.0066757202000000005,-0.0032043457
1220,1.22,0.0038528442000000003,-0.0062179565
1221,1.221,0.0053024292,-0.0067138672
1222,1.222,0.0090408325,-0.0039672852
1223,1.223,0.0026702881000000003,0.007324218800000001
1224,1.224,0.0048446655,0.001411438
1225,1.225,0.0177383423,-0.0065612793
1226,1.226,0.0075531006,-0.0031280518
1227,1.227,-0.0016403198000000002,-0.0095367432
1228,1.228,-0.002784729,-0.0114822388
1229,1.229,-0.0089645386,0.0004959106
1230,1.23,-0.0054550171,0.0015258789000000001
1231,1.231,0.0148773193,-0.0093841553
1232,1.232,0.0102996826,-0.009765625
1233,1.233,0.0017929077,-0.0124740601
1234,1.234,-0.0024032593,-0.0170898438
1235,1.235,-0.0051498413,-0.0090789795
1236,1.236,-0.0101089478,0.0055313110000000006
1237,1.237,0,-0.0013351440000000001
1238,1.238,0.013275146500000001,-0.0094223022
1239,1.239,0.0019073486,-0.0068283081
1240,1.24,-0.0030899048,-0.012207031200000001
1241,1.241,-0.0032043457,-0.0042724609
1242,1.242,0.0004959106,0.0040054321
1243,1.2429999999999999,-0.0040054321,0.0014495850000000002
1244,1.244,-0.0008773804,-0.0010681152
1245,1.245,0.0051879883,-0.0001144409
1246,1.246,0.0020217896,-0.0009155273000000001
1247,1.2469999999999999,-0.0047302246,-0.0033950806
1248,1.248,-0.0041198730000000005,0.0059127808000000006
1249,1.249,-0.0080108643,0.0142669678
1250,1.25,0.0012588501,0.0059890747
1251,1.251,0.0193023682,-0.0029754639
1252,1.252,0.0124740601,0.0016021729
1253,1.2530000000000001,0.0029373169,-0.0005722046
1254,1.254,-0.0010299683000000001,-0.001373291
1255,1.255,0.0011825562,0.009193420400000001
1256,1.256,-0.0030899048,0.009613037100000001
1257,1.2570000000000001,0.0099182129,-0.0002288818
1258,1.258,0.0088500977,0.0043487549000000006
1259,1.259,-0.0011444092,0.0033569336
1260,1.26,-0.0030899048,-0.0030136108
1261,1.2610000000000001,-0.013580322300000001,0.005340576200000001
1262,1.262,-0.0030136108,0.0133895874
1263,1.263,0.009765625,0.0029373169
1264,1.264,0.031013488800000003,-0.0012588501
1265,1.2650000000000001,0.0156021118,-0.0047302246
1266,1.266,0.0016784668,-0.0087738037
1267,1.267,0.0118255615,-0.0136184692
1268,1.268,0.013275146500000001,0.0054168701
1269,1.2690000000000001,0.0008773804,0.0062561035000000004
1270,1.27,0.0014495850000000002,-0.0034332275000000002
1271,1.271,0.0049972534,-0.0080108643
1272,1.272,0.0039291382000000005,-0.0027084351
1273,1.2730000000000001,-0.0062942505,0.0040435791
1274,1.274,-0.0068664551,-0.0071334839
1275,1.275,-0.0047683716,0.0090789795
1276,1.276,-0.0015640259,0.0105667114
1277,1.2770000000000001,0.005569458,-0.0031661987
1278,1.278,0.0023269653,-0.0035095215
1279,1.279,0.0003814697,-0.0053024292
1280,1.28,-0.0020599365000000002,-0.008354187
1281,1.2810000000000001,0.0022125244,0.010452270500000001
1282,1.282,-0.0065994263,0.0072097778
1283,1.283,0.0172805786,-0.0051879883
1284,1.284,0.0104141235,-0.0033187866
1285,1.2850000000000001,0.0133132935,-0.0064086914
1286,1.286,0.006980896,-0.0025939941
1287,1.287,-0.0034332275000000002,0.002822876
1288,1.288,-0.0031280518,0.0133132935
1289,1.289,0.0025177002,0.0016784668
1290,1.29,0.0141525269,-0.0021743774
1291,1.291,0.018386840800000002,-0.0013351440000000001
1292,1.292,0.0024795532000000003,-0.0074768066
1293,1.293,0.0035858154,-0.0009155273000000001
1294,1.294,-0.006332397500000001,0.0109863281
1295,1.295,-0.0066375732,0.0058746338
1296,1.296,0.018806457500000002,0.002784729
1297,1.297,0.0122451782,-0.0034713745000000003
1298,1.298,-0.0018310547000000002,-0.0048065186
1299,1.299,0.0028991699,-0.013160705600000001
1300,1.3,0.0043106079,-0.0049209595000000005
1301,1.301,0.0009155273000000001,0.0067901611
1302,1.302,0.0162887573,0.0025939941
1303,1.303,0.0186920166,0.0006866455
1304,1.304,0.0146865845,0.0034332275000000002
1305,1.305,0.0025558472,-0.0011825562
1306,1.306,-0.0112533569,-0.0033187866
1307,1.307,-0.0249862671,0.00030517580000000003
1308,1.308,-0.017890930200000002,-0.0005340576
1309,1.309,-0.002822876,0.0009918213
1310,1.31,-0.0028610229000000003,0.0016784668
1311,1.311,-0.0004959106,-0.0005722046
1312,1.312,0.0011062622,-0.0018692017
1313,1.313,-0.0011062622,-0.0004577637
1314,1.314,-0.005645752,-0.0029754639
1315,1.315,-0.0024032593,0.0019836426
1316,1.316,0.0066757202000000005,0.0028610229000000003
1317,1.317,0.0058364868,-0.0002670288
1318,1.318,-0.0014877319,0.0005722046
1319,1.319,-0.0078964233,-0.00030517580000000003
1320,1.32,-0.0043106079,0.0056838989000000005
1321,1.321,-0.009307861300000001,-0.00015258790000000002
1322,1.322,0.0021743774,-0.0004577637
1323,1.323,0.0088119507,-0.052146911600000005
1324,1.324,-0.0040435791,-0.0562286377
1325,1.325,-0.0116729736,-0.0453186035
1326,1.326,-0.0112533569,-0.020828247100000002
1327,1.327,-0.0102233887,-0.0008392334
1328,1.328,-0.0031661987,0.0046539307
1329,1.329,0.020980835,0.0437927246
1330,1.33,0.014610290500000001,0.0647354126
1331,1.331,0.008430481,0.062026977500000004
1332,1.332,-0.0025939941,0.0658798218
1333,1.333,-0.0010299683000000001,0.1000213623
1334,1.334,0.002784729,0.1078033447
1335,1.335,0.014839172400000001,0.0872421265
1336,1.336,0.012016296400000001,0.0762939453
1337,1.337,0.0006103516000000001,0.0540161133
1338,1.338,0.0031280518,0.0331878662
1339,1.339,-0.002822876,0.006332397500000001
1340,1.34,-0.0079345703,-0.0087738037
1341,1.341,-0.0011825562,-0.033416748
1342,1.342,0.0155639648,-0.042228698700000004
1343,1.343,0.0138473511,-0.0449371338
1344,1.344,0.0033950806,-0.0611114502
1345,1.345,0.0047302246,-0.0931549072
1346,1.346,-0.002784729,-0.0605392456
1347,1.347,-0.0079727173,-0.038566589400000004
1348,1.348,0.0159835815,-0.0429916382
1349,1.349,0.0068283081,-0.032043457000000004
1350,1.35,0.0003433228,-0.0122833252
1351,1.351,0.0026321411,0.0148010254
1352,1.3519999999999999,-0.0028991699,0.02784729
1353,1.353,-0.0049972534,0.0338363647
1354,1.354,-0.0031280518,0.0267791748
1355,1.355,0.0103759766,0.0119018555
1356,1.3559999999999999,0.0062942505,0.0127792358
1357,1.357,0.0024795532000000003,0.0184631348
1358,1.358,-0.00831604,0.0057220459
1359,1.359,-0.0189971924,-0.0036621094000000003
1360,1.3599999999999999,-0.0197601318,-0.0061798096
1361,1.361,-0.0032424927000000003,-0.031013488800000003
1362,1.362,0.0017547607,-0.061187744100000004
1363,1.363,-0.0090408325,-0.0705718994
1364,1.3639999999999999,-0.0076675415000000005,-0.0563812256
1365,1.365,-0.0099563599,-0.0444030762
1366,1.366,-0.013961792,-0.043487548800000005
1367,1.367,-0.0098419189,-0.0500869751
1368,1.3679999999999999,-0.011711120600000001,-0.0604248047
1369,1.369,-0.0225448608,-0.054397583000000006
1370,1.37,-0.027961731,-0.0467681885
1371,1.371,-0.0374221802,-0.026550293000000003
1372,1.3719999999999999,-0.0313568115,-0.0090789795
1373,1.373,-0.0054931641000000005,0.0266647339
1374,1.374,0.0366973877,0.0327682495
1375,1.375,0.0552749634,0.0417709351
1376,1.376,0.050048828100000005,0.0296783447
1377,1.377,0.0372314453,0.0239181519
1378,1.3780000000000001,0.026397705100000002,0.0520706177
1379,1.379,-0.011138916,0.0778198242
1380,1.38,-0.0034332275000000002,0.0424575806
1381,1.381,0.020980835,0.0155258179
1382,1.3820000000000001,0.0081253052,0.0233078003
1383,1.383,0.0016784668,0.043869018600000004
1384,1.384,-0.0104904175,-0.0066757202000000005
1385,1.385,-0.0282287598,-0.0207901001
1386,1.3860000000000001,-0.0448226929,-0.0315093994
1387,1.387,-0.048332214400000004,-0.0368881226
1388,1.388,-0.032081604,-0.068321228
1389,1.389,-0.0018310547000000002,-0.1084899902
1390,1.3900000000000001,-0.015335083000000001,-0.1095581055
1391,1.391,-0.0220108032,-0.104675293
1392,1.392,-0.0207138062,-0.0685882568
1393,1.393,0.018196106,-0.053253173800000005
1394,1.3940000000000001,0.047073364300000003,-0.0162506104
1395,1.395,0.0381088257,-0.012626647900000001
1396,1.396,0.0228500366,-0.1340484619
1397,1.397,0.0085067749,-0.2108764648
1398,1.3980000000000001,-0.0025558472,-0.18756866460000002
1399,1.399,-0.0102233887,-0.0993728638
1400,1.4,0.0035476685,-0.007019043000000001
1401,1.401,-0.001411438,-0.0074005127
1402,1.4020000000000001,-0.0216674805,-0.1205444336
1403,1.403,-0.0416946411,-0.18829345700000003
1404,1.404,-0.0345993042,-0.1461791992
1405,1.405,-0.0141525269,-0.0992202759
1406,1.4060000000000001,0.0120544434,-0.0552368164
1407,1.407,0.0136566162,0.0992202759
1408,1.408,-0.0076675415000000005,0.19805908200000003
1409,1.409,-0.0131988525,0.2319717407
1410,1.4100000000000001,-0.0003433228,0.2327728271
1411,1.411,-0.0186920166,0.2855300903
1412,1.412,-0.0238418579,0.3355789185
1413,1.413,-0.0044631958,0.3078842163
1414,1.4140000000000001,0.0065612793,0.24135589600000001
1415,1.415,0.0044250488,0.224571228
1416,1.416,-0.0163650513,0.2212524414
1417,1.417,-0.046424865700000005,0.1853942871
1418,1.418,-0.040130615200000004,0.1554107666
1419,1.419,0.0022888184,0.0986480713
1420,1.42,0.025978088400000002,0.0411605835
1421,1.421,0.0010681152,0.0329589844
1422,1.422,0.0017929077,0.0246047974
1423,1.423,-0.0025558472,0.0082397461
1424,1.424,-0.0222396851,-0.0132369995
1425,1.425,-0.02784729,-0.046958923300000004
1426,1.426,-0.0051116943000000005,-0.0645065308
1427,1.427,-0.020484924300000002,-0.0463485718
1428,1.428,-0.0257492065,-0.051651001
1429,1.429,-0.0020599365000000002,-0.0509643555
1430,1.43,0.0059890747,-0.055732727100000004
1431,1.431,0.0062942505,-0.045013427700000004
1432,1.432,0.0078964233,-0.027046203600000002
1433,1.433,0.0395202637,-0.0193405151
1434,1.434,0.032424926800000003,0.0035095215
1435,1.435,-0.0180053711,-0.0116729736
1436,1.436,-0.0173568726,-0.029411315900000002
1437,1.437,0.0103378296,-0.0221252441
1438,1.438,0.0028991699,-0.0233459473
1439,1.439,-0.0013351440000000001,-0.0357055664
1440,1.44,-0.0358200073,-0.0583267212
1441,1.441,-0.0232315063,-0.1128387451
1442,1.442,0.0059127808000000006,-0.10601043700000001
1443,1.443,0.0051879883,-0.0942993164
1444,1.444,-0.0054168701,-0.10009765620000001
1445,1.445,0.0017929077,-0.0894927979
1446,1.446,0.018157959,-0.052680969200000004
1447,1.447,-0.0011444092,-0.0531387329
1448,1.448,-0.0108337402,-0.0784301758
1449,1.449,-0.0067520142,-0.0720596313
1450,1.45,-0.0035476685,-0.0333786011
1451,1.451,-0.0311660767,-0.0537490845
1452,1.452,-0.038452148400000004,-0.0638961792
1453,1.453,-0.0317001343,-0.0265884399
1454,1.454,0.013275146500000001,-0.0029373169
1455,1.455,0.0286483765,0.0205993652
1456,1.456,0.015449523900000001,0.058631897
1457,1.457,0.0079727173,0.06980896
1458,1.458,0.0329208374,0.0657653809
1459,1.459,0.0336074829,0.035781860400000004
1460,1.46,0.0135040283,0.012626647900000001
1461,1.461,0.0074768066,-0.0269317627
1462,1.462,0.0074386597,-0.0581741333
1463,1.463,-0.0240707397,-0.0484466553
1464,1.464,-0.061187744100000004,-0.0299072266
1465,1.465,-0.0163650513,0.0025939941
1466,1.466,0.019989013700000002,0.0556945801
1467,1.467,0.033988952600000004,0.0835037231
1468,1.468,0.0313568115,0.0801086426
1469,1.469,-0.0060653687000000005,0.0991439819
1470,1.47,-0.024528503400000002,0.0736236572
1471,1.471,-0.014190673800000001,0.1486587524
1472,1.472,-0.0140380859,0.1593017578
1473,1.473,-0.0296783447,0.1270294189
1474,1.474,-0.014495849600000001,0.0370025635
1475,1.475,0.0011825562,-0.1055145264
1476,1.476,-0.0128173828,-0.3894042969
1477,1.477,0.0019454956,-0.49381256100000004
1478,1.478,0.026206970200000002,-0.4479598999
1479,1.479,0.0410461426,-0.4167556763
1480,1.48,0.0218582153,-0.4066848755
1481,1.4809999999999999,-0.0070571899,-0.4007720947
1482,1.482,-0.0316619873,-0.3881072998
1483,1.483,-0.0340652466,-0.38486480710000004
1484,1.484,-0.0346755981,-0.3687667847
1485,1.4849999999999999,-0.0133895874,-0.35987854
1486,1.486,-0.0056838989000000005,-0.3511047363
1487,1.487,-0.0172424316,-0.3465652466
1488,1.488,-0.0093460083,-0.33515930180000003
1489,1.4889999999999999,0.0224685669,-0.3271484375
1490,1.49,0.0393676758,-0.31852722170000003
1491,1.491,0.038871765100000004,-0.3119277954
1492,1.492,0.0173568726,-0.2796936035
1493,1.4929999999999999,0.0215911865,-0.2185058594
1494,1.494,0.0272750854,-0.16437530520000002
1495,1.495,0.0321578979,-0.0919723511
1496,1.496,0.0190734863,0.0151443481
1497,1.4969999999999999,-0.0122833252,0.08056640620000001
1498,1.498,-0.023002624500000002,0.2144241333
1499,1.499,-0.0290298462,0.3141403198
1500,1.5,-0.026512146,0.4722213745
1501,1.501,0.0005722046,0.5106353760000001
1502,1.502,0.0448989868,0.5174636841
1503,1.5030000000000001,0.0639343262,0.4652023315
1504,1.504,0.0520324707,0.4041290283
1505,1.505,0.02784729,0.4267501831
1506,1.506,0.011711120600000001,0.4258728027
1507,1.5070000000000001,-0.0243759155,0.341796875
1508,1.508,-0.042076110800000004,0.3113555908
1509,1.509,-0.0539016724,0.3608322144
1510,1.51,-0.0456237793,0.3046035767
1511,1.5110000000000001,0.0346755981,0.2140808105
1512,1.512,0.0648880005,0.20290374760000002
1513,1.513,0.0275421143,0.1948928833
1514,1.514,-0.0106430054,0.19397735600000002
1515,1.5150000000000001,-0.0378799438,0.1926422119
1516,1.516,-0.028991699200000002,0.1824951172
1517,1.517,-0.016784668000000003,0.1696014404
1518,1.518,-0.0276947021,0.1746368408
1519,1.5190000000000001,-0.0216674805,0.170173645
1520,1.52,0.0038909912,0.1658248901
1521,1.521,-0.0037002563,0.166015625
1522,1.522,0.0042724609,0.15781402590000002
1523,1.5230000000000001,0.0941467285,0.15529632570000002
1524,1.524,0.045433044400000004,0.1475906372
1525,1.525,0.0187683105,0.3844833374
1526,1.526,0.0135040283,0.3647232056
1527,1.5270000000000001,-0.0305175781,0.31394958500000003
1528,1.528,-0.0485229492,0.1725769043
1529,1.529,-0.0077438354,0.0389480591
1530,1.53,0.0476455688,-0.0503540039
1531,1.5310000000000001,0.0297927856,-0.0944519043
1532,1.532,0.0397491455,-0.1414489746
1533,1.533,0.0769805908,-0.1091384888
1534,1.534,0.0754547119,-0.0344848633
1535,1.5350000000000001,0.0745391846,0.019493103
1536,1.536,0.043296814,0.0811767578
1537,1.537,0.0040054321,0.0736999512
1538,1.538,-0.0807952881,-0.0703048706
1539,1.5390000000000001,-0.0815582275,-0.1971435547
1540,1.54,-0.0603485107,-0.3191375732
1541,1.541,-0.0764083862,-0.25993347170000003
1542,1.542,-0.0794219971,-0.1606750488
1543,1.5430000000000001,-0.037727356000000004,-0.2995300293
1544,1.544,-0.019645690900000002,-0.3044891357
1545,1.545,-0.0086212158,-0.2042007446
1546,1.546,-0.019645690900000002,-0.0580596924
1547,1.5470000000000002,-0.0116729736,-0.0330352783
1548,1.548,-0.0146865845,-0.0276184082
1549,1.549,-0.0052261353,0.13843536380000002
1550,1.55,0.0168228149,0.3071212769
1551,1.5510000000000002,0.0321578979,0.3108978271
1552,1.552,0.0063705444,0.3076171875
1553,1.553,-0.0555038452,0.3065490723
1554,1.554,-0.0706863403,0.2939987183
1555,1.5550000000000002,-0.0283432007,0.2849197388
1556,1.556,0.050010681200000004,0.277557373
1557,1.557,0.0355148315,0.1390457153
1558,1.558,-0.0064849854000000005,-0.15529632570000002
1559,1.5590000000000002,0.0051879883,-0.3165435791
1560,1.56,0.0026702881000000003,-0.3722763062
1561,1.561,0.0030136108,-0.3721618652
1562,1.562,0.019493103,-0.4275131226
1563,1.5630000000000002,0.0229644775,-0.4511642456
1564,1.564,0.0013351440000000001,-0.4138946533
1565,1.565,-0.0096511841,-0.3207015991
1566,1.566,-0.0188827515,-0.2830505371
1567,1.5670000000000002,-0.0247573853,-0.1715087891
1568,1.568,-0.0277709961,-0.0519180298
1569,1.569,-0.0053787231,0.0496673584
1570,1.57,0.0076293945,0.1319122314
1571,1.5710000000000002,0.0337982178,0.1159286499
1572,1.572,0.0471878052,-0.0235366821
1573,1.573,0.024871826200000002,-0.1375579834
1574,1.574,-0.0194168091,-0.042076110800000004
1575,1.5750000000000002,-0.01537323,-0.20076751710000001
1576,1.576,0.010032653800000001,-0.6393051147000001
1577,1.577,-0.0051116943000000005,-0.5828094482
1578,1.5779999999999998,-0.0300216675,-0.5139923096
1579,1.579,-0.041885376,-0.41801452640000003
1580,1.58,-0.0150680542,-0.2572631836
1581,1.581,0.0163269043,0.0173187256
1582,1.5819999999999999,0.023765564000000003,0.2346801758
1583,1.583,0.0089645386,0.26371002200000004
1584,1.584,-0.0060272217,0.2562332153
1585,1.585,-0.0147628784,0.24875640870000001
1586,1.5859999999999999,0.005645752,0.24517059330000002
1587,1.587,0.0187683105,0.2393722534
1588,1.588,0.0291061401,0.23017883300000003
1589,1.589,-0.0035476685,0.2265548706
1590,1.5899999999999999,-0.0247955322,0.3344726562
1591,1.591,-0.0146865845,0.3507232666
1592,1.592,-0.010452270500000001,0.3307342529
1593,1.593,-0.0131988525,0.329246521
1594,1.5939999999999999,-0.01537323,0.28450012210000003
1595,1.595,-0.0015640259,0.1233291626
1596,1.596,-0.0048065186,0.0552368164
1597,1.597,0.0146484375,-0.0857162476
1598,1.5979999999999999,0.015296936,-0.1838302612
1599,1.599,0.0090408325,-0.2545166016
1600,1.6,0.0093460083,-0.341796875
1601,1.601,0.0039291382000000005,-0.33775329590000003
1602,1.6019999999999999,0.012550354000000001,-0.2021026611
1603,1.603,-0.0017929077,-0.2033996582
1604,1.604,-0.010871887200000001,-0.2926254272
1605,1.605,-0.0216674805,-0.2876663208
1606,1.6059999999999999,-0.015335083000000001,-0.12630462650000002
1607,1.607,-0.0047302246,-0.0318145752
1608,1.608,0.0082015991,0.0814437866
1609,1.609,0.0201034546,0.2727890015
1610,1.6099999999999999,0.0039291382000000005,0.34091949460000004
1611,1.611,0.0017929077,0.3566360474
1612,1.612,0.0067520142,0.4349517822
1613,1.613,0.0065612793,0.4219055176
1614,1.6139999999999999,0.0085067749,0.2882766724
1615,1.615,0.013694763200000001,0.2040863037
1616,1.616,-0.005607605000000001,0.0719451904
1617,1.617,-0.0145721436,-0.0198364258
1618,1.6179999999999999,-0.0074768066,-0.0425720215
1619,1.619,0.012321472200000001,-0.1183319092
1620,1.62,-0.0090408325,-0.13118743900000002
1621,1.621,-0.017051696800000002,-0.1774597168
1622,1.6219999999999999,-0.0436782837,-0.2529144287
1623,1.623,-0.0866317749,-0.40840148930000003
1624,1.624,-0.076713562,-0.4773712158
1625,1.625,-0.0744628906,-0.3574752808
1626,1.626,-0.0605773926,-0.1383209229
1627,1.627,-0.0102996826,0.0550079346
1628,1.6280000000000001,0.0484848022,0.20008087160000002
1629,1.629,0.0099563599,0.2593994141
1630,1.63,-0.0387191772,0.0582504272
1631,1.631,-0.0391387939,-0.041809082000000004
1632,1.6320000000000001,0.0109863281,0.025787353500000002
1633,1.633,0.0356292725,0.13217926030000002
1634,1.634,0.0537109375,0.0733566284
1635,1.635,-0.012512207000000001,-0.0693893433
1636,1.6360000000000001,-0.0260543823,-0.128288269
1637,1.637,-0.0852584839,-0.13034820560000002
1638,1.638,-0.1652526855,-0.0980758667
1639,1.639,-0.1328277588,-0.0661087036
1640,1.6400000000000001,-0.0596237183,0.006942749000000001
1641,1.641,0.1998901367,0.1720046997
1642,1.642,0.3849029541,0.19771575930000002
1643,1.643,0.2563858032,0.19420623780000001
1644,1.6440000000000001,0.23067474370000002,0.2509307861
1645,1.645,0.1368331909,0.2955245972
1646,1.646,-0.0072479248000000005,0.2426147461
1647,1.647,-0.0681686401,0.107421875
1648,1.6480000000000001,-0.09902954100000001,0.0783920288
1649,1.649,-0.0812911987,0.1236343384
1650,1.65,-0.1206588745,0.1176452637
1651,1.651,0.0230789185,0.035667419400000004
1652,1.6520000000000001,-0.0638580322,-0.023269653300000002
1653,1.653,-0.1503372192,-0.15377044680000002
1654,1.654,0.0734710693,-0.4397201538
1655,1.655,0.3707504272,-0.45402526860000003
1656,1.6560000000000001,0.1782226562,-0.44258117680000003
1657,1.657,-0.2350616455,-0.4322814941
1658,1.658,-0.3526687622,-0.4232406616
1659,1.659,-0.1919555664,-0.4103851318
1660,1.6600000000000001,0.0965499878,-0.40088653560000004
1661,1.661,0.1912307739,-0.3921508789
1662,1.662,-0.0216674805,-0.3802108765
1663,1.663,-0.1076126099,-0.3726196289
1664,1.6640000000000001,-0.22800445560000002,-0.36293029790000003
1665,1.665,-0.1109695435,-0.3541183472
1666,1.666,0.3176498413,-0.3477859497
1667,1.667,0.3145217896,-0.339050293
1668,1.6680000000000001,0.1058578491,-0.3290176392
1669,1.669,0.1236724854,-0.32218933110000003
1670,1.67,0.1862335205,-0.3150558472
1671,1.671,0.205078125,-0.3091049194
1672,1.6720000000000002,0.2083969116,-0.299911499
1673,1.673,0.1638793945,-0.2925109863
1674,1.674,-0.0745010376,0.1039505005
1675,1.675,-0.2337646484,0.1643371582
1676,1.6760000000000002,-0.2241897583,0.0708389282
1677,1.677,-0.2010345459,0.0813674927
1678,1.678,-0.1461029053,0.076713562
1679,1.679,-0.1044082642,0.029830932600000002
1680,1.6800000000000002,-0.047798156700000004,-0.1034164429
1681,1.681,0.010757446300000001,-0.262336731
1682,1.682,-0.0698471069,-0.2979660034
1683,1.683,-0.0650405884,-0.179977417
1684,1.6840000000000002,0.0015640259,0.0205230713
1685,1.685,0.0679779053,0.2143859863
1686,1.686,0.0914764404,0.35572052
1687,1.687,0.0527191162,0.40302276610000004
1688,1.6880000000000002,-0.0089645386,0.42209625240000004
1689,1.689,-0.0307846069,0.3280639648
1690,1.69,-0.1289367676,0.3905105591
1691,1.691,-0.048866272,0.41782379150000004
1692,1.6920000000000002,0.049896240200000004,0.3645706177
1693,1.693,0.0776672363,0.2746963501
1694,1.694,0.0146865845,0.1766204834
1695,1.695,-0.1103210449,0.1181793213
1696,1.6960000000000002,-0.1834106445,0.10261535640000001
1697,1.697,-0.2237319946,0.1009750366
1698,1.698,-0.050163269,0.0930786133
1699,1.699,0.1425552368,0.0805282593
1700,1.7000000000000002,0.1055145264,0.0603485107
1701,1.701,0.0192642212,0.046691894500000004
1702,1.702,-0.022583007800000002,0.041809082000000004
1703,1.703,-0.02784729,0.034103393600000004
1704,1.704,-0.0518035889,0.0507736206
1705,1.705,-0.0765991211,0.0484085083
1706,1.706,-0.1142883301,0.0569915771
1707,1.7069999999999999,-0.18932342530000001,0.0440979004
1708,1.708,-0.0199508667,-0.0092697144
1709,1.709,0.3338623047,-0.0274276733
1710,1.71,0.2685546875,-0.0078201294
1711,1.7109999999999999,0.1045227051,-0.0017547607
1712,1.712,0.046691894500000004,0.011291503900000001
1713,1.713,-0.0386428833,0.0339126587
1714,1.714,-0.1025772095,0.044746398900000005
1715,1.7149999999999999,-0.1128387451,0.044631958
1716,1.716,-0.0630950928,0.0788497925
1717,1.717,0.0176620483,0.1075744629
1718,1.718,0.0722122192,0.0969696045
1719,1.7189999999999999,0.030860900900000002,0.0649642944
1720,1.72,-0.0820541382,0.0645828247
1721,1.721,-0.0691223145,0.106048584
1722,1.722,-0.0841522217,0.0902938843
1723,1.7229999999999999,-0.0045013428000000005,0.0630569458
1724,1.724,0.1389312744,0.033264160200000004
1725,1.725,0.2077484131,0.0114440918
1726,1.726,0.0230789185,0.0033950806
1727,1.7269999999999999,0.0385284424,0.0080871582
1728,1.728,-0.026397705100000002,0.0217056274
1729,1.729,-0.0480270386,0.0340270996
1730,1.73,0.1270294189,0.0503921509
1731,1.7309999999999999,0.0672912598,0.044746398900000005
1732,1.732,-0.1350021362,0.0477600098
1733,1.733,-0.1091384888,0.051994323700000004
1734,1.734,-0.0303268433,0.0591659546
1735,1.7349999999999999,0.0145339966,0.1030731201
1736,1.736,0.0660705566,0.14095306400000002
1737,1.737,0.0587463379,0.1161956787
1738,1.738,0.0651931763,0.0712966919
1739,1.7389999999999999,0.0556945801,-0.019989013700000002
1740,1.74,-0.0011062622,-0.0407791138
1741,1.741,-0.0965118408,-0.061607360800000004
1742,1.742,-0.1634597778,-0.1082229614
1743,1.7429999999999999,-0.1242828369,-0.1294326782
1744,1.744,-0.0450515747,-0.1323699951
1745,1.745,0.0223922729,-0.1057815552
1746,1.746,0.0117874146,0.0210571289
1747,1.7469999999999999,-0.0089645386,0.1035308838
1748,1.748,-0.019149780300000002,0.0954437256
1749,1.749,-0.0431442261,0.094871521
1750,1.75,-0.047912597700000004,0.0702667236
1751,1.751,0.020484924300000002,0.0565338135
1752,1.752,0.0843048096,0.045127868700000004
1753,1.7530000000000001,0.0445556641,0.0372314453
1754,1.754,0.0242996216,0.032844543500000004
1755,1.755,0.0344848633,0.0402069092
1756,1.756,-0.0493240356,0.044631958
1757,1.7570000000000001,-0.0510787964,0.058288574200000005
1758,1.758,-0.032043457000000004,0.0775909424
1759,1.759,0.0269317627,0.0676345825
1760,1.76,0.1319503784,0.0064086914
1761,1.7610000000000001,-0.021324157700000002,0.040473938
1762,1.762,-0.1903915405,0.0901794434
1763,1.763,-0.2960205078,0.0820922852
1764,1.764,-0.2416992188,0.037651062
1765,1.7650000000000001,-0.1494598389,-0.0319671631
1766,1.766,-0.016746521,-0.059967041000000006
1767,1.767,0.29575347900000004,-0.041236877400000004
1768,1.768,0.36396026610000004,-0.036773681600000004
1769,1.7690000000000001,0.2043914795,-0.0305175781
1770,1.77,0.0997161865,0.0052642822
1771,1.771,0.0329971313,0.0099563599
1772,1.772,0.0396728516,-0.0058364868
1773,1.7730000000000001,0.0582504272,-0.0212478638
1774,1.774,0.0729370117,-0.0082397461
1775,1.775,0.13690948490000002,0.014610290500000001
1776,1.776,0.1708602905,0.014495849600000001
1777,1.7770000000000001,0.0785064697,0.0038146973000000002
1778,1.778,-0.0106811523,0.0034332275000000002
1779,1.779,-0.11642456050000001,0.0094223022
1780,1.78,-0.2530670166,0.032424926800000003
1781,1.7810000000000001,-0.1655960083,0.0518035889
1782,1.782,-0.0955200195,0.0448226929
1783,1.783,-0.0410079956,0.0347518921
1784,1.784,0.0025177002,0.0214767456
1785,1.7850000000000001,-0.0002670288,0.0218200684
1786,1.786,0.032043457000000004,0.0221252441
1787,1.787,0.0653839111,0.01953125
1788,1.788,0.022163391100000002,0.0203704834
1789,1.7890000000000001,-0.027885437000000002,0.0184631348
1790,1.79,-0.034408569300000004,0.0190353394
1791,1.791,-0.0561141968,0.017471313500000002
1792,1.792,-0.029258728,0.0180053711
1793,1.7930000000000001,0.050010681200000004,0.016860961900000002
1794,1.794,0.0676727295,0.0175857544
1795,1.795,-0.002784729,0.013351440400000001
1796,1.796,-0.0696182251,0.016632080100000002
1797,1.7970000000000002,-0.0761413574,0.0169754028
1798,1.798,-0.0878143311,0.013885498000000001
1799,1.799,0.0052261353,0.0120925903
1800,1.8,0.0758361816,0.016021728500000002
1801,1.8010000000000002,0.2216339111,0.0141525269
1802,1.802,0.1285552979,0.013923645
1803,1.803,-0.1098251343,0.0141143799
1804,1.804,-0.1614379883,-0.0529098511
1805,1.8050000000000002,-0.1755905151,-0.0109481812
1806,1.806,-0.1016235352,0.025711059600000002
1807,1.807,-0.0311660767,0.0726318359
1808,1.808,0.0059127808000000006,0.16368865970000002
1809,1.8090000000000002,0.0346755981,0.1865386963
1810,1.81,0.0750350952,0.1097488403
1811,1.811,0.0177764893,0.050468444800000005
1812,1.812,-0.0129699707,0.0179290771
1813,1.8130000000000002,-0.0212478638,-0.0054931641000000005
1814,1.814,-0.0750350952,-0.005607605000000001
1815,1.815,-0.1095581055,-0.0142669678
1816,1.816,-0.096321106,-0.0191879272
1817,1.8170000000000002,-0.0326919556,-0.0012207031
1818,1.818,0.1552581787,-0.0040817261
1819,1.819,0.13927459720000002,-0.0023651123
1820,1.82,0.0751495361,-0.009193420400000001
1821,1.8210000000000002,0.0807571411,0.0043487549000000006
1822,1.822,0.1111602783,0.0067138672
1823,1.823,0.1900100708,-0.004234314
1824,1.824,0.1219940186,-0.0068283081
1825,1.8250000000000002,-0.32173156740000003,-0.0036239624000000002
1826,1.826,-0.5926513672,-0.0048828125
1827,1.827,-0.3997802734,-0.0095367432
1828,1.828,-0.0016403198000000002,-0.0028991699
1829,1.8290000000000002,0.4331970215,-0.0060653687000000005
1830,1.83,0.2727127075,-0.0329208374
1831,1.831,0.1094818115,-0.0243377686
1832,1.832,-0.0002288818,-0.0043869019
1833,1.833,0.1191711426,0.0213623047
1834,1.834,0.1372528076,-0.0121307373
1835,1.835,-0.0775527954,-0.1277542114
1836,1.8359999999999999,-0.0374984741,-0.182800293
1837,1.837,0.009307861300000001,-0.1803207397
1838,1.838,-0.0493621826,-0.126953125
1839,1.839,-0.0733566284,-0.09857177730000001
1840,1.8399999999999999,-0.1198959351,-0.0774765015
1841,1.841,-0.1720046997,-0.0024795532000000003
1842,1.842,0.1123046875,0.1202392578
1843,1.843,0.28873443600000004,0.2537536621
1844,1.8439999999999999,0.15041351320000002,0.2075958252
1845,1.845,-0.0051116943000000005,0.0875091553
1846,1.846,-0.1670074463,0.041389465300000004
1847,1.847,-0.2555465698,0.024452209500000002
1848,1.8479999999999999,-0.1886749268,0.0021362305
1849,1.849,-0.0103759766,0.0060653687000000005
1850,1.85,0.1092529297,0.0003814697
1851,1.851,0.2643203735,-0.0055313110000000006
1852,1.8519999999999999,0.21686553960000002,-0.0035095215
1853,1.853,0.0797271729,0.0057601929
1854,1.854,-0.0166702271,0.0016021729
1855,1.855,0.0001144409,-0.0014877319
1856,1.8559999999999999,-0.0115203857,-0.0018692017
1857,1.857,-0.0709915161,-0.0068283081
1858,1.858,-0.0923156738,-0.0143051147
1859,1.859,-0.1726531982,-0.0118637085
1860,1.8599999999999999,-0.1774597168,-0.0019073486
1861,1.861,-0.1087188721,-0.0011444092
1862,1.862,0.15529632570000002,-0.0098419189
1863,1.863,0.061492919900000005,-0.008697509800000001
1864,1.8639999999999999,0.0225067139,-0.0133132935
1865,1.865,0.0216293335,-0.0128173828
1866,1.866,-0.026397705100000002,-0.0090026855
1867,1.867,0.0284576416,-0.0116729736
1868,1.8679999999999999,-0.0549697876,-0.0230407715
1869,1.869,-0.072593689,-0.0242996216
1870,1.87,0.0575256348,-0.0216293335
1871,1.871,0.0623703003,-0.0095367432
1872,1.8719999999999999,0.0685882568,-0.0060272217
1873,1.873,0.0252151489,0.0151062012
1874,1.874,-0.0213623047,0.0145339966
1875,1.875,-0.0216293335,-0.0064468384
1876,1.876,-0.0779724121,-0.0217056274
1877,1.877,-0.1675415039,-0.012512207000000001
1878,1.8780000000000001,-0.1486206055,-0.0134277344
1879,1.879,-0.12630462650000002,-0.0055313110000000006
1880,1.88,-0.046272277800000004,-0.0002670288
1881,1.881,0.0406265259,-0.0075531006
1882,1.8820000000000001,0.0466537476,-0.0019836426
1883,1.883,0.13385772710000002,-0.008277893100000001
1884,1.884,0.2087402344,-0.0098419189
1885,1.885,0.0247192383,-0.0096511841
1886,1.8860000000000001,0.002746582,0.0071716309
1887,1.887,0.1096725464,0.0035858154
1888,1.888,0.291557312,0.0049209595000000005
1889,1.889,0.5164718628,-0.0182342529
1890,1.8900000000000001,0.3465652466,-0.0216293335
1891,1.891,-0.2680969238,-0.0128936768
1892,1.892,-0.7612991333,0.0101089478
1893,1.893,-0.8852386475,0.0116729736
1894,1.8940000000000001,-0.5984115601000001,-0.0065612793
1895,1.895,-0.049057006800000004,-0.0071334839
1896,1.896,0.3765487671,-0.0053787231
1897,1.897,0.41263580320000004,-0.0054550171
1898,1.8980000000000001,0.284576416,-0.0044631958
1899,1.899,0.3318405151,-0.0117874146
1900,1.9,0.3773880005,-0.0024795532000000003
1901,1.901,0.3282546997,-0.0053787231
1902,1.9020000000000001,0.0215530396,0.0052261353
1903,1.903,-0.2208328247,-0.0096893311
1904,1.904,-0.2963638306,-0.0156784058
1905,1.905,-0.336265564,0.0019836426
1906,1.9060000000000001,-0.12599945070000002,-0.0075912476
1907,1.907,0.0717926025,-0.005340576200000001
1908,1.908,0.0079345703,0.000038147
1909,1.909,-0.2021026611,0.0049209595000000005
1910,1.9100000000000001,-0.2690505981,0.0028610229000000003
1911,1.911,-0.2461242676,0.008888244600000001
1912,1.912,-0.1935958862,0.0116729736
1913,1.913,0.1499176025,0.0080108643
1914,1.9140000000000001,0.2936172485,0.0020599365000000002
1915,1.915,0.1168060303,-0.0007629395
1916,1.916,-0.2209472656,-0.0096893311
1917,1.917,-0.0252532959,-0.0179290771
1918,1.9180000000000001,0.4708862305,0.0001907349
1919,1.919,0.4583740234,0.0152206421
1920,1.92,0.3201293945,0.007514953600000001
1921,1.921,0.12966156010000002,0.0026321411
1922,1.9220000000000002,0.0071334839,-0.0030899048
1923,1.923,0.1378631592,-0.00030517580000000003
1924,1.924,0.2219009399,0.0096511841
1925,1.925,0.26817321780000003,0.0322341919
1926,1.9260000000000002,0.2851104736,0.035667419400000004
1927,1.927,0.2902984619,0.021743774400000002
1928,1.928,-0.0846481323,0.0200271606
1929,1.929,-0.41290283200000005,-0.0023651123
1930,1.9300000000000002,-0.4006195068,-0.027046203600000002
1931,1.931,-0.23174285890000001,-0.0346374512
1932,1.932,-0.418510437,-0.0484466553
1933,1.933,-0.5286026001,-0.0300598145
1934,1.9340000000000002,-0.6693649292,-0.0267791748
1935,1.935,-0.6824874878,-0.0192642212
1936,1.936,-0.34629821780000003,-0.0247955322
1937,1.937,0.0752639771,-0.018119812000000002
1938,1.9380000000000002,0.14621734620000001,-0.0090408325
1939,1.939,0.49430847170000003,-0.0075912476
1940,1.94,0.5054092407,-0.0057601929
1941,1.941,-0.0458908081,-0.008468627900000001
1942,1.9420000000000002,-0.0197219849,-0.0082397461
1943,1.943,-0.18978118900000002,-0.0159835815
1944,1.944,-0.4766845703,0.0113677979
1945,1.945,-0.3212738037,0.0302124023
1946,1.9460000000000002,0.1927566528,0.0313568115
1947,1.947,0.5291748047,0.0473403931
1948,1.948,0.3213119507,0.0493621826
1949,1.949,0.3311157227,0.039100647
1950,1.9500000000000002,0.46176910400000004,0.0427627563
1951,1.951,0.2723312378,0.056610107400000005
1952,1.952,0.1126480103,0.0273132324
1953,1.953,0.12840271,-0.020065307600000002
1954,1.9540000000000002,-0.0661849976,-0.0455093384
1955,1.955,-0.36247253420000003,-0.08628845210000001
1956,1.956,0.0733947754,-0.0603485107
1957,1.957,0.3507232666,-0.0035858154
1958,1.9580000000000002,-0.0746154785,-0.008697509800000001
1959,1.959,-0.3927230835,-0.0731277466
1960,1.96,-0.26649475100000003,-0.0874328613
1961,1.9609999999999999,-0.1923751831,-0.0925445557
1962,1.962,-0.2446365356,-0.0762557983
1963,1.963,0.2321624756,-0.054512023900000005
1964,1.964,0.8371353149,-0.0456237793
1965,1.9649999999999999,0.4386901855,-0.041656494100000004
1966,1.966,0.0594329834,-0.0471496582
1967,1.967,0.0003814697,0.0013351440000000001
1968,1.968,-0.0316619873,0.057029724100000005
1969,1.9689999999999999,-0.0031280518,0.0234985352
1970,1.97,-0.0676345825,0.0493621826
1971,1.971,-0.1902389526,0.12950897220000002
1972,1.972,-0.22563934330000002,0.19245147710000002
1973,1.9729999999999999,-0.2643966675,0.1153945923
1974,1.974,-0.22464752200000002,0.0509643555
1975,1.975,-0.0494003296,0.038185119600000005
1976,1.976,-0.0322723389,0.038871765100000004
1977,1.9769999999999999,-0.0887680054,0.0291061401
1978,1.978,-0.0343704224,0.015258789100000001
1979,1.979,0.0551223755,0.0206375122
1980,1.98,0.0606918335,0.0076675415000000005
1981,1.9809999999999999,0.008277893100000001,0.007858276400000001
1982,1.982,-0.2953720093,0.0053787231
1983,1.983,-0.4041290283,0.0022506714000000002
1984,1.984,-0.2701950073,-0.0127029419
1985,1.9849999999999999,-0.1270294189,-0.0476837158
1986,1.986,0.3215408325,-0.038032531700000004
1987,1.987,0.6635665894,-0.0347900391
1988,1.988,0.6447601318,-0.0403594971
1989,1.9889999999999999,0.1541137695,-0.015411377
1990,1.99,-0.2629470825,0.002746582
1991,1.991,-0.4014587402,-0.0048446655
1992,1.992,-0.4163742065,-0.012626647900000001
1993,1.9929999999999999,-0.376663208,-0.0073623657
1994,1.994,-0.28785705570000003,-0.0140380859
1995,1.995,0.0358963013,-0.0156402588
1996,1.996,0.39375305180000003,-0.0028991699
1997,1.9969999999999999,0.43201446530000004,-0.0032806396000000003
1998,1.998,0.2936172485,-0.0101089478
1999,1.999,0.0293731689,-0.0216293335
2000,2,-0.0196075439,-0.0116348267
2001,2.001,0.045547485400000004,-0.0085449219
2002,2.002,-0.1161193848,0.0009155273000000001
2003,2.003,-0.0983047485,0.0043487549000000006
2004,2.004,0.0186920166,-0.0050735474000000004
2005,2.005,0.0206756592,-0.0042724609
2006,2.006,0.25154113770000003,-0.015411377
2007,2.007,0.4117965698,-0.0063705444
2008,2.008,0.2978897095,-0.0027084351
2009,2.009,-0.042610168500000004,0.0106048584
2010,2.01,-0.1096725464,0.0102615356
2011,2.011,-0.1068878174,0.0047302246
2012,2.012,-0.1312637329,-0.005645752
2013,2.013,-0.1065444946,-0.0054168701
2014,2.014,-0.0573730469,-0.0042724609
2015,2.015,-0.033683776900000004,-0.0064086914
2016,2.016,-0.0829315186,-0.0067138672
2017,2.017,-0.0988388062,-0.0062561035000000004
2018,2.018,-0.059967041000000006,-0.0052642822
2019,2.019,-0.0010299683000000001,0.0950622559
2020,2.02,0.036621093800000004,0.0899505615
2021,2.021,0.0458908081,0.0569152832
2022,2.022,0.0110244751,0.0370788574
2023,2.023,-0.0484085083,0.009613037100000001
2024,2.024,-0.0850296021,-0.0253295898
2025,2.025,-0.2067565918,-0.0417709351
2026,2.026,-0.2259063721,-0.1068878174
2027,2.027,-0.2252197266,-0.1265716553
2028,2.028,-0.056724548300000004,-0.0873184204
2029,2.029,0.3603744507,-0.0484848022
2030,2.03,0.4106140137,-0.0456237793
2031,2.031,0.0730514526,-0.027961731
2032,2.032,-0.1079940796,-0.027923584
2033,2.033,-0.11577606200000001,-0.0249862671
2034,2.034,-0.0885009766,-0.0276947021
2035,2.035,-0.05859375,-0.0250244141
2036,2.036,-0.0205230713,-0.0207901001
2037,2.037,0.0137329102,-0.0217819214
2038,2.038,0.0009918213,0.0234985352
2039,2.039,-0.0087738037,0.033988952600000004
2040,2.04,-0.0197982788,0.018119812000000002
2041,2.041,-0.0741958618,-0.0292205811
2042,2.042,-0.0786972046,-0.14163970950000002
2043,2.043,-0.0952148438,-0.15743255620000002
2044,2.044,-0.1124954224,-0.1079559326
2045,2.045,-0.0727462769,-0.0942611694
2046,2.046,-0.0668334961,-0.1215744019
2047,2.047,-0.0110626221,-0.0885772705
2048,2.048,0.0400543213,-0.0099182129
2049,2.049,0.06137847900000001,0.028991699200000002
2050,2.05,0.043182373,0.10879516600000001
2051,2.051,0.0046920776,0.19168853760000001
2052,2.052,-0.0277328491,0.1870346069
2053,2.053,0.0096893311,0.1816558838
2054,2.054,0.0628662109,0.17932891850000002
2055,2.055,0.1150894165,0.1730728149
2056,2.056,0.1779556274,0.16757965090000002
2057,2.057,0.191116333,0.1668167114
2058,2.058,0.1158905029,0.1643371582
2059,2.059,-0.016212463400000002,0.1566314697
2060,2.06,-0.051155090300000004,0.1594161987
2061,2.061,0.0926589966,0.149230957
2062,2.062,0.19771575930000002,0.1474761963
2063,2.063,0.26527404790000003,0.1420593262
2064,2.064,0.2337646484,0.1378250122
2065,2.065,0.16048431400000002,0.1326751709
2066,2.066,0.060043335,0.133972168
2067,2.067,-0.0807571411,0.1290130615
2068,2.068,-0.1782226562,0.1240921021
2069,2.069,-0.19672393800000001,0.12413024900000001
2070,2.07,-0.1515960693,0.1184463501
2071,2.071,-0.13622283940000002,0.1169204712
2072,2.072,-0.1081085205,0.1136779785
2073,2.073,-0.0877761841,0.1128768921
2074,2.074,-0.040473938,0.1079940796
2075,2.075,0.018119812000000002,0.1082992554
2076,2.076,0.1081848145,0.1062774658
2077,2.077,0.0748825073,0.0998687744
2078,2.078,0.0110244751,0.0959014893
2079,2.079,-0.054054260300000004,0.0974273682
2080,2.08,-0.0819015503,0.0847244263
2081,2.081,-0.089263916,0.093460083
2082,2.082,-0.0901031494,0.0875854492
2083,2.083,-0.0464630127,0.0880050659
2084,2.084,-0.0165939331,0.0904464722
2085,2.085,0.0253295898,0.0839233398
2086,2.086,0.038032531700000004,0.0774002075
2087,2.087,0.023422241200000003,0.0794219971
2088,2.088,0.0356292725,0.082321167
2089,2.089,0.0812149048,0.0751495361
2090,2.09,0.0696182251,-0.1484680176
2091,2.091,0.0333404541,-0.16704559330000002
2092,2.092,0.0029754639,-0.135307312
2093,2.093,-0.0228881836,-0.1097869873
2094,2.094,-0.034103393600000004,-0.083694458
2095,2.095,-0.0388336182,-0.087890625
2096,2.096,-0.0185775757,-0.09284973140000001
2097,2.097,-0.0026321411,-0.0867462158
2098,2.098,0.0127792358,-0.0995635986
2099,2.099,0.0411224365,-0.0888061523
2100,2.1,0.0289535522,-0.0549697876
2101,2.101,0.024032592800000002,-0.0455093384
2102,2.102,0.030860900900000002,-0.052986145000000005
2103,2.103,0.0228500366,-0.062332153300000005
2104,2.104,0.0185394287,-0.0637054443
2105,2.105,0.0163650513,-0.0637435913
2106,2.106,0.0001144409,-0.0499343872
2107,2.107,-0.006523132300000001,-0.0458908081
2108,2.108,-0.004196167000000001,-0.0467681885
2109,2.109,-0.0039672852,-0.0575256348
2110,2.11,-0.014495849600000001,-0.048332214400000004
2111,2.111,-0.019645690900000002,-0.052795410200000004
2112,2.112,-0.0109481812,-0.0507736206
2113,2.113,0.0057220459,-0.0345993042
2114,2.114,0.0166702271,-0.0232315063
2115,2.115,0.0277328491,-0.0250244141
2116,2.116,0.013961792,-0.0417327881
2117,2.117,-0.0218963623,-0.056724548300000004
2118,2.118,-0.062026977500000004,-0.050048828100000005
2119,2.119,-0.0780487061,-0.0493240356
2120,2.12,-0.0415039062,-0.043258667
2121,2.121,-0.0085830688,-0.0457763672
2122,2.122,0.0060653687000000005,-0.045585632300000005
2123,2.123,-0.004196167000000001,-0.0392150879
2124,2.124,-0.0012588501,-0.051307678200000005
2125,2.125,0.0005722046,-0.0436019897
2126,2.126,-0.0002670288,-0.0342941284
2127,2.127,-0.017051696800000002,-0.0417327881
2128,2.128,-0.0098800659,-0.043487548800000005
2129,2.129,-0.0112533569,-0.0469970703
2130,2.13,-0.0023269653,-0.045013427700000004
2131,2.1310000000000002,-0.0079345703,-0.0415420532
2132,2.132,-0.0206756592,-0.0288009644
2133,2.133,-0.030174255400000002,-0.0214385986
2134,2.134,-0.014419555700000001,-0.030593872100000002
2135,2.135,-0.0172805786,-0.0325775146
2136,2.136,-0.0300979614,-0.042228698700000004
2137,2.137,-0.0477218628,-0.0382614136
2138,2.138,-0.0397491455,-0.031318664600000004
2139,2.1390000000000002,-0.0299453735,-0.0179290771
2140,2.14,0.0038146973000000002,-0.0062942505
2141,2.141,0.0403213501,-0.0075912476
2142,2.142,0.0472259521,-0.0222015381
2143,2.143,0.0218200684,-0.03074646
2144,2.144,-0.0281906128,-0.0397872925
2145,2.145,-0.0573730469,-0.020980835
2146,2.146,-0.0720977783,-0.016021728500000002
2147,2.147,-0.06275177,-0.0191116333
2148,2.148,-0.0191879272,-0.0206375122
2149,2.149,-0.0050735474000000004,-0.0268554688
2150,2.15,-0.023765564000000003,-0.0241851807
2151,2.151,-0.025177002,-0.029144287100000003
2152,2.152,-0.0010681152,-0.0172424316
2153,2.153,0.0190734863,-0.0124740601
2154,2.154,0.022354126000000002,-0.0186157227
2155,2.155,-0.0063705444,-0.01953125
2156,2.156,-0.0416183472,-0.0161743164
2157,2.157,-0.0757980347,-0.0207138062
2158,2.158,-0.0789260864,-0.0226593018
2159,2.159,-0.0763320923,-0.0163650513
2160,2.16,-0.0597000122,-0.0149536133
2161,2.161,-0.0295257568,-0.0198364258
2162,2.162,-0.0175857544,-0.0204467773
2163,2.163,-0.011100769,-0.0284194946
2164,2.164,-0.0040817261,-0.028152465800000002
2165,2.165,0.0271987915,-0.0190353394
2166,2.166,0.0450515747,-0.013923645
2167,2.167,0.0637817383,-0.015258789100000001
2168,2.168,0.087928772,-0.0171661377
2169,2.169,0.0708389282,-0.0154876709
2170,2.17,0.0142669678,-0.019989013700000002
2171,2.171,-0.0333786011,-0.018806457500000002
2172,2.172,-0.0506210327,-0.0036239624000000002
2173,2.173,-0.0426864624,-0.0137329102
2174,2.174,-0.01537323,-0.0120544434
2175,2.175,-0.049476623500000004,-0.0169372559
2176,2.176,-0.0741195679,-0.0326156616
2177,2.177,-0.08644104,-0.026512146
2178,2.178,-0.0625610352,-0.012207031200000001
2179,2.179,-0.0238418579,-0.0044250488
2180,2.18,0.037345886200000004,-0.0135040283
2181,2.181,0.0235366821,-0.0136566162
2182,2.182,-0.0018310547000000002,-0.0089263916
2183,2.183,-0.0157546997,-0.0178146362
2184,2.184,-0.0045013428000000005,-0.010032653800000001
2185,2.185,0.0151443481,0.000038147
2186,2.186,0.0243759155,-0.0099945068
2187,2.187,0.0326156616,-0.0166702271
2188,2.188,0.026512146,-0.0114059448
2189,2.189,0.0517654419,-0.0202560425
2190,2.19,0.0527572632,-0.0274276733
2191,2.191,0.0456619263,-0.005645752
2192,2.192,0.0341796875,-0.0006866455
2193,2.193,0.0184631348,-0.0105285645
2194,2.194,-0.0067520142,-0.0102615356
2195,2.195,-0.0259017944,-0.0196838379
2196,2.196,-0.038986206100000004,-0.016632080100000002
2197,2.197,-0.0321578979,-0.0070571899
2198,2.198,-0.0090026855,-0.0004577637
2199,2.199,0.0033187866,-0.0117874146
2200,2.2,0.0051879883,-0.007858276400000001
2201,2.201,0.0040435791,-0.0145339966
2202,2.202,-0.0091552734,-0.0120544434
2203,2.203,-0.0141525269,-0.0149917603
2204,2.204,-0.01121521,0.007324218800000001
2205,2.205,-0.026206970200000002,-0.0015258789000000001
2206,2.206,-0.0275421143,-0.0004959106
2207,2.207,-0.030708313,0.0026321411
2208,2.208,-0.0047683716,-0.0006866455
2209,2.209,0.030250549300000002,-0.0062179565
2210,2.21,0.056037902800000004,-0.0037002563
2211,2.211,0.0657272339,0.0064849854000000005
2212,2.212,0.0466537476,0.0001907349
2213,2.213,0.0338745117,-0.002784729
2214,2.214,0.0030136108,-0.0118255615
2215,2.215,-0.0290298462,-0.0062179565
2216,2.216,-0.0047302246,-0.0086593628
2217,2.217,0.0201416016,-0.0020980835
2218,2.218,0.0146865845,0.0008773804
2219,2.219,0.0117874146,-0.0027084351
2220,2.22,-0.036315918,-0.0101852417
2221,2.221,-0.0609588623,-0.0064849854000000005
2222,2.222,-0.0122833252,-0.0094604492
2223,2.223,0.0300216675,-0.0071716309
2224,2.224,0.0375747681,-0.0104141235
2225,2.225,0.027961731,-0.0075531006
2226,2.226,0.0400543213,-0.007324218800000001
2227,2.227,0.0535583496,-0.0106430054
2228,2.228,0.0472259521,-0.0082397461
2229,2.229,0.0410079956,-0.006904602100000001
2230,2.23,0.0249099731,-0.0080108643
2231,2.231,0.013046264600000001,-0.0057601929
2232,2.232,0.0024414062,-0.0085067749
2233,2.233,-0.0048828125,-0.0114440918
2234,2.234,-0.0190353394,-0.0124740601
2235,2.235,-0.0538253784,-0.0101852417
2236,2.236,-0.0814437866,-0.006904602100000001
2237,2.237,-0.0664138794,0.0032424927000000003
2238,2.238,0.0074386597,-0.0038909912
2239,2.239,0.0577545166,0.0001907349
2240,2.24,0.059928894,-0.0064086914
2241,2.241,0.0415039062,-0.0005722046
2242,2.242,0.0191879272,-0.0060653687000000005
2243,2.243,0.022354126000000002,0.0113677979
2244,2.2439999999999998,0.013160705600000001,0.0099563599
2245,2.245,0.0207138062,0.0058746338
2246,2.246,0.0094985962,-0.008468627900000001
2247,2.247,0.0143814087,-0.0035858154
2248,2.248,0.0196838379,-0.0022506714000000002
2249,2.249,-0.008430481,-0.0011825562
2250,2.25,-0.0197219849,0.012931823700000001
2251,2.251,-0.0197601318,0.0015258789000000001
2252,2.252,-0.0062561035000000004,-0.0016021729
2253,2.253,0.012626647900000001,-0.0104141235
2254,2.254,0.0176620483,-0.0026702881000000003
2255,2.255,0.023193359400000002,-0.0112533569
2256,2.2560000000000002,0.0212860107,0.0032806396000000003
2257,2.257,0.0288772583,0.0019836426
2258,2.258,0.0379562378,-0.0023269653
2259,2.259,0.0291061401,-0.0072097778
2260,2.26,0.020828247100000002,-0.008049011200000001
2261,2.261,-0.006942749000000001,-0.019226074200000002
2262,2.262,-0.0280380249,-0.009117126500000001
2263,2.263,-0.0350570679,0.005607605000000001
2264,2.2640000000000002,-0.0137329102,-0.0042724609
2265,2.265,0.0086593628,-0.0130844116
2266,2.266,0.0147247314,-0.0050354004
2267,2.267,-0.0017166138000000001,-0.0127792358
2268,2.268,-0.0093460083,-0.0170898438
2269,2.269,-0.0145339966,0.0038146973000000002
2270,2.27,-0.0199508667,0.0025939941
2271,2.271,-0.0018310547000000002,-0.0023651123
2272,2.2720000000000002,-0.0077056885,-0.0090789795
2273,2.273,-0.017051696800000002,-0.0072860718
2274,2.274,-0.019569397000000002,-0.0101852417
2275,2.275,-0.0205993652,-0.0063705444
2276,2.276,-0.0253295898,0.0054168701
2277,2.277,-0.0114440918,-0.0029754639
2278,2.278,0.0179672241,-0.0033187866
2279,2.279,0.0101089478,-0.0020599365000000002
2280,2.2800000000000002,0.0106430054,-0.006942749000000001
2281,2.281,0.011177063000000001,-0.0089263916
2282,2.282,0.012550354000000001,0.0056838989000000005
2283,2.283,0.008697509800000001,0.0046539307
2284,2.284,0.0180435181,0.0032043457
2285,2.285,0.0176620483,0.0002670288
2286,2.286,0.0138092041,-0.0071334839
2287,2.287,0.0087356567,-0.012016296400000001
2288,2.2880000000000003,0.0006103516000000001,0.0035476685
2289,2.289,-0.0007247925,0.0076675415000000005
2290,2.29,-0.0032806396000000003,0.0053787231
2291,2.291,-0.0115203857,-0.0029754639
2292,2.292,-0.0368881226,0.00030517580000000003
2293,2.293,-0.032730102500000004,-0.00415802
2294,2.294,-0.0252151489,-0.0043869019
2295,2.295,-0.018119812000000002,0.011100769
2296,2.296,-0.0086593628,0.0093460083
2297,2.297,0.009765625,-0.0002288818
2298,2.298,-0.0017166138000000001,0.0016784668
2299,2.299,-0.0094604492,-0.0046539307
2300,2.3,-0.014495849600000001,-0.0014877319
2301,2.301,-0.015029907200000001,0.002784729
2302,2.302,-0.0019454956,0.0081253052
2303,2.303,0.0188446045,0.0005340576
2304,2.304,0.0462341309,-0.0031661987
2305,2.305,0.0315856934,-0.0010299683000000001
2306,2.306,0.0025558472,-0.002822876
2307,2.307,-0.0109100342,-0.0102996826
2308,2.308,-0.0149536133,0.0062561035000000004
2309,2.309,-0.0127029419,0.0080871582
2310,2.31,0.0020980835,-0.0014877319
2311,2.311,0.00415802,-0.0011062622
2312,2.312,0.0047683716,-0.0051498413
2313,2.313,0.0006103516000000001,-0.0136184692
2314,2.314,-0.0036239624000000002,-0.0055313110000000006
2315,2.315,-0.0066375732,0.0051879883
2316,2.316,-0.0030517578000000003,-0.0006103516000000001
2317,2.317,0.0079727173,-0.0071334839
2318,2.318,0.008888244600000001,-0.0079727173
2319,2.319,-0.0012969971,-0.0050735474000000004
2320,2.32,-0.0004196167,-0.013885498000000001
2321,2.321,0.002784729,0.0035858154
2322,2.322,-0.0032806396000000003,0.0068664551
2323,2.323,0.018157959,-0.0079727173
2324,2.324,0.0106811523,0.0021362305
2325,2.325,0.0035095215,-0.005569458
2326,2.326,-0.0032424927000000003,-0.007019043000000001
2327,2.327,-0.0054168701,0.0045776367
2328,2.328,-0.0064086914,0.011291503900000001
2329,2.329,0.0004959106,0.0072479248000000005
2330,2.33,0.009727478000000001,0.0026321411
2331,2.331,0.0036621094000000003,0.001373291
2332,2.332,-0.00831604,0.0005722046
2333,2.333,-0.0035858154,0.00015258790000000002
2334,2.334,-0.008468627900000001,0.0003814697
2335,2.335,-0.0082015991,0.0007247925
2336,2.336,0.0103759766,-0.0019454956
2337,2.337,0.0148010254,0.0230789185
2338,2.338,0.00831604,0.018119812000000002
2339,2.339,0.012855529800000001,0.00831604
2340,2.34,0.0073623657,0.0082397461
2341,2.341,0.0010681152,0.014419555700000001
2342,2.342,0.0104904175,-0.0090408325
2343,2.343,0.0217056274,-0.0078201294
2344,2.344,0.014190673800000001,0.0048446655
2345,2.345,-0.0008773804,0.0216293335
2346,2.346,-0.0020980835,0.0234603882
2347,2.347,-0.0020217896,0.0234985352
2348,2.348,0.0008392334,0.0028610229000000003
2349,2.349,0.014419555700000001,-0.0074005127
2350,2.35,0.0116729736,-0.013999939000000001
2351,2.351,0.0010299683000000001,-0.0041198730000000005
2352,2.352,0.0006484985,-0.0179290771
2353,2.3529999999999998,-0.0133895874,-0.0179290771
2354,2.354,-0.012626647900000001,-0.0248336792
2355,2.355,-0.0094604492,-0.0443649292
2356,2.356,-0.0019454956,-0.0603866577
2357,2.357,-0.0052261353,-0.0798034668
2358,2.358,-0.0066757202000000005,-0.057029724100000005
2359,2.359,-0.001411438,-0.041885376
2360,2.36,-0.012016296400000001,-0.01953125
2361,2.3609999999999998,-0.0048065186,-0.0068664551
2362,2.362,0.0051879883,-0.0054550171
2363,2.363,0.0180435181,-0.0048446655
2364,2.364,0.0177001953,0.0021362305
2365,2.365,0.0089645386,0.0022888184
2366,2.366,0.0042724609,0.0042724609
2367,2.367,0.0021362305,0.016860961900000002
2368,2.368,0.0038528442000000003,0.0157546997
2369,2.3689999999999998,0.018386840800000002,-0.0060653687000000005
2370,2.37,0.0036239624000000002,-0.0323486328
2371,2.371,0.0022506714000000002,-0.045433044400000004
2372,2.372,-0.0011825562,-0.0393295288
2373,2.373,-0.0098419189,-0.0303649902
2374,2.374,-0.0099945068,-0.0192642212
2375,2.375,0.0090026855,-0.0271606445
2376,2.376,0.0127029419,-0.0283813477
2377,2.377,-0.001411438,0.0030899048
2378,2.378,-0.010452270500000001,0.0148773193
2379,2.379,-0.016708374,0.0413513184
2380,2.38,-0.024948120100000002,0.0631713867
2381,2.3810000000000002,-0.0135421753,0.0592041016
2382,2.382,-0.0057601929,0.06275177
2383,2.383,-0.0018692017,0.0574111938
2384,2.384,0.0076293945,0.0956726074
2385,2.385,0.0184249878,0.1316833496
2386,2.386,0.0048446655,0.1605224609
2387,2.387,-0.0026321411,0.1195907593
2388,2.388,0.0093460083,0.0868225098
2389,2.3890000000000002,-0.0039672852,0.0480651855
2390,2.39,-0.0066375732,0.0077438354
2391,2.391,0.0037384033,-0.0114822388
2392,2.392,0.0024032593,-0.0505447388
2393,2.393,-0.0020980835,-0.0755310059
2394,2.394,0.0004196167,-0.1103973389
2395,2.395,0.0147628784,-0.1419067383
2396,2.396,0.009803772,-0.1363754272
2397,2.3970000000000002,0.0096893311,-0.0881195068
2398,2.398,-0.0046539307,-0.0609588623
2399,2.399,-0.0143432617,-0.0266647339
2400,2.4,-0.0104904175,0.0080108643
2401,2.401,0.0092697144,0.0076675415000000005
2402,2.402,0.0051116943000000005,-0.00415802
2403,2.403,0.0233840942,-0.0060653687000000005
2404,2.404,0.0283432007,0.0008010864
2405,2.4050000000000002,0.0147247314,-0.0045394897000000005
2406,2.406,0.011596679700000001,-0.0040817261
2407,2.407,0.0185394287,-0.005950927700000001
2408,2.408,0.022773742700000002,-0.0016403198000000002
2409,2.409,0.0177001953,-0.0043106079
2410,2.41,-0.012512207000000001,-0.0024032593
2411,2.411,-0.0357437134,-0.0044250488
2412,2.412,-0.037193298300000004,-0.0047302246
2413,2.4130000000000003,-0.0170898438,-0.0041198730000000005
2414,2.414,-0.0044631958,-0.0044631958
2415,2.415,0.0042724609,0.0141525269
2416,2.416,-0.0143432617,0.0078201294
2417,2.417,-0.0360488892,-0.0050354004
2418,2.418,-0.052146911600000005,-0.0217819214
2419,2.419,-0.047912597700000004,-0.0102233887
2420,2.42,-0.0047683716,0.0039672852
2421,2.421,0.0535583496,0.023651123000000003
2422,2.422,0.0508117676,-0.0561141968
2423,2.423,0.0222015381,-0.1406097412
2424,2.424,0.0048446655,-0.1638031006
2425,2.425,-0.0114059448,-0.1461791992
2426,2.426,-0.017471313500000002,-0.1100540161
2427,2.427,-0.0148773193,-0.0774002075
2428,2.428,-0.0066757202000000005,0.0233459473
2429,2.429,-0.0154876709,0.052833557100000005
2430,2.43,0.0194168091,0.0022125244
2431,2.431,0.0267410278,-0.0135421753
2432,2.432,0.024108886700000002,-0.020408630400000002
2433,2.433,0.016212463400000002,0.006980896
2434,2.434,0.0280380249,0.0633621216
2435,2.435,0.0072097778,0.15155792240000002
2436,2.436,0.0032424927000000003,0.1840209961
2437,2.437,-0.0030136108,0.1628112793
2438,2.438,-0.015029907200000001,0.12531280520000002
2439,2.439,-0.0366973877,0.1156616211
2440,2.44,-0.035362243700000004,0.1271820068
2441,2.441,-0.051422119100000004,0.07808685300000001
2442,2.442,-0.053253173800000005,0.013999939000000001
2443,2.443,-0.018730163600000002,0.009117126500000001
2444,2.444,-0.0005340576,0.0202560425
2445,2.445,-0.0068283081,0.0304031372
2446,2.446,0.013923645,0.0285339355
2447,2.447,0.040245056200000004,-0.010871887200000001
2448,2.448,-0.0076293945,-0.0436401367
2449,2.449,-0.0165176392,-0.0431442261
2450,2.45,-0.012588501,-0.0485610962
2451,2.451,-0.019149780300000002,-0.0075912476
2452,2.452,-0.0165176392,0.0123596191
2453,2.453,0.0172042847,-0.0055313110000000006
2454,2.454,0.025367736800000002,0.001373291
2455,2.455,0.0066757202000000005,-0.0091552734
2456,2.456,-0.0143051147,-0.0428390503
2457,2.457,-0.0191116333,-0.0170898438
2458,2.458,-0.011596679700000001,-0.0107955933
2459,2.459,0.0040817261,-0.0132369995
2460,2.46,0.0296020508,-0.023422241200000003
2461,2.461,0.010032653800000001,0.0106811523
2462,2.462,-0.0004196167,0.0575256348
2463,2.463,-0.0131225586,0.0667953491
2464,2.464,-0.050048828100000005,0.0873565674
2465,2.465,-0.053672790500000005,0.0857925415
2466,2.466,-0.0305557251,0.0821685791
2467,2.467,-0.0157165527,0.0425720215
2468,2.468,-0.012016296400000001,-0.0365829468
2469,2.469,-0.012626647900000001,-0.11489868160000001
2470,2.47,-0.0114059448,-0.1143264771
2471,2.471,0.0040435791,-0.1025390625
2472,2.472,0.0053787231,-0.0776290894
2473,2.473,0.021514892600000002,-0.056724548300000004
2474,2.474,0.0025939941,-0.0661087036
2475,2.475,0.012931823700000001,-0.012741088900000001
2476,2.476,0.0147628784,0.013961792
2477,2.477,0.0058364868,0.030250549300000002
2478,2.478,-0.0055313110000000006,0.011291503900000001
2479,2.479,0.0004577637,-0.016746521
2480,2.48,0.0005340576,-0.0690841675
2481,2.481,-0.0054168701,-0.10581970210000001
2482,2.482,-0.0310516357,-0.0754165649
2483,2.483,-0.0608444214,-0.0387573242
2484,2.484,-0.0651931763,-0.030708313
2485,2.485,-0.0076675415000000005,-0.022163391100000002
2486,2.4859999999999998,0.0512313843,-0.0025939941
2487,2.487,0.0421524048,0.025978088400000002
2488,2.488,0.0121307373,0.0493621826
2489,2.489,0.0080108643,0.0424575806
2490,2.49,0.0206756592,0.0256347656
2491,2.491,0.0107192993,0.020065307600000002
2492,2.492,0.0233459473,0.012016296400000001
2493,2.493,-0.0073623657,0.0101470947
2494,2.4939999999999998,-0.0218200684,0.0170898438
2495,2.495,-0.0096511841,0.0093460083
2496,2.496,0.0169372559,0.0039291382000000005
2497,2.497,0.0029373169,0.0012207031
2498,2.498,0.0157928467,-0.00015258790000000002
2499,2.499,0.0338745117,0.0019073486
2500,2.5,-0.0161743164,-0.0223922729
2501,2.501,-0.0506210327,-0.055770874000000005
2502,2.502,-0.020065307600000002,-0.1586151123
2503,2.503,-0.0109481812,-0.1365661621
2504,2.504,0.0016021729,-0.1198959351
2505,2.505,0.0358200073,-0.079498291
2506,2.5060000000000002,0.040473938,-0.0185775757
2507,2.507,0.045013427700000004,0.0158309937
2508,2.508,0.0279998779,0.0638580322
2509,2.509,-0.0104141235,0.1084899902
2510,2.51,-0.0179672241,0.16490936280000001
2511,2.511,-0.0025558472,0.21121978760000001
2512,2.512,-0.0012969971,0.1847076416
2513,2.513,0.000038147,0.1756286621
2514,2.5140000000000002,0.0118637085,0.1718902588
2515,2.515,-0.009727478000000001,0.1648330688
2516,2.516,-0.0229644775,0.1639938354
2517,2.517,-0.037651062,0.1622772217
2518,2.518,-0.0189208984,0.15743255620000002
2519,2.519,-0.010032653800000001,0.1502990723
2520,2.52,-0.0151824951,0.1496887207
2521,2.521,-0.027885437000000002,0.1445007324
2522,2.5220000000000002,0.0072479248000000005,0.140914917
2523,2.523,0.0022125244,0.13858795170000002
2524,2.524,0.0285339355,0.13671875
2525,2.525,0.025100708000000003,0.1291275024
2526,2.526,-0.008888244600000001,0.1301193237
2527,2.527,-0.0109863281,0.12481689450000001
2528,2.528,0.0219726562,0.1219177246
2529,2.529,0.012321472200000001,0.1207733154
2530,2.5300000000000002,-0.0102996826,0.1156997681
2531,2.531,-0.0096893311,0.1149749756
2532,2.532,0.0178146362,0.11070251460000001
2533,2.533,0.008697509800000001,0.108833313
2534,2.534,-0.0085830688,0.1054763794
2535,2.535,-0.002746582,0.1054763794
2536,2.536,-0.001411438,0.1005935669
2537,2.537,0.0130844116,0.0971221924
2538,2.5380000000000003,0.011177063000000001,0.0953674316
2539,2.539,-0.0006866455,-0.21068573000000002
2540,2.54,0.0131225586,-0.1148223877
2541,2.541,0.0501251221,-0.11531829830000001
2542,2.542,0.0407409668,-0.1236343384
2543,2.543,-0.0371551514,-0.25840759280000003
2544,2.544,-0.0412750244,-0.2917480469
2545,2.545,-0.0275039673,-0.2172851562
2546,2.5460000000000003,-0.0278091431,-0.1201629639
2547,2.547,-0.0202178955,-0.0849533081
2548,2.548,-0.0298690796,0.0605773926
2549,2.549,-0.030593872100000002,0.178527832
2550,2.55,-0.033988952600000004,0.2154541016
2551,2.551,-0.0196075439,0.34900665280000004
2552,2.552,-0.023651123000000003,0.5059051514
2553,2.553,0.0170135498,0.5331802368
2554,2.5540000000000003,0.0467300415,0.4124450684
2555,2.555,0.0414276123,0.3030395508
2556,2.556,0.0229263306,0.22602081300000001
2557,2.557,0.053939819300000004,0.13645172120000001
2558,2.558,0.046272277800000004,0.0666046143
2559,2.559,0.0396728516,-0.016021728500000002
2560,2.56,0.0023651123,-0.0908660889
2561,2.561,-0.0485610962,-0.1824951172
2562,2.5620000000000003,-0.0478363037,-0.2132415771
2563,2.563,0.0063705444,-0.2163314819
2564,2.564,0.0382232666,-0.2016830444
2565,2.565,-0.0284576416,-0.2101898193
2566,2.566,-0.0343322754,-0.1577377319
2567,2.567,-0.0162887573,-0.1253890991
2568,2.568,-0.0202941895,-0.15460968020000002
2569,2.569,-0.038604736300000005,-0.1882171631
2570,2.5700000000000003,-0.026550293000000003,-0.1934051514
2571,2.571,-0.0410079956,-0.1914978027
2572,2.572,-0.057678222700000004,-0.1398849487
2573,2.573,-0.10261535640000001,-0.1340103149
2574,2.574,-0.1108932495,-0.1853561401
2575,2.575,-0.0550079346,-0.21625518800000001
2576,2.576,0.0473403931,-0.12382507320000001
2577,2.577,0.1947784424,0.0630569458
2578,2.578,0.14026641850000002,0.0959396362
2579,2.5789999999999997,0.0350570679,0.0423812866
2580,2.58,-0.0374984741,-0.0118255615
2581,2.581,-0.0766372681,-0.0876235962
2582,2.582,-0.050163269,-0.1629257202
2583,2.583,-0.023612976100000002,-0.19367218020000002
2584,2.584,-0.0200271606,-0.5056381226000001
2585,2.585,0.0319290161,-0.7733535767
2586,2.586,0.1308441162,-0.6442260742
2587,2.5869999999999997,0.1605606079,-0.4705810547
2588,2.588,0.11299133300000001,-0.2711105347
2589,2.589,-0.0520706177,-0.12493133540000001
2590,2.59,-0.1496124268,-0.14301300050000001
2591,2.591,-0.1842498779,-0.1302337646
2592,2.592,-0.2265548706,0.1201248169
2593,2.593,-0.1565551758,0.4206848145
2594,2.594,0.0643157959,0.5249023438
2595,2.5949999999999998,0.3295135498,0.3843307495
2596,2.596,0.2433013916,0.2141189575
2597,2.597,0.0897216797,0.14301300050000001
2598,2.598,0.0811386108,0.0931549072
2599,2.599,0.0505065918,0.09204864500000001
2600,2.6,0.0268554688,0.0311660767
2601,2.601,-0.0112533569,0.0580215454
2602,2.602,-0.0197601318,0.1846694946
2603,2.6029999999999998,-0.0255203247,0.3548812866
2604,2.604,-0.0466156006,0.4928207397
2605,2.605,0.0769424438,0.311088562
2606,2.606,0.11169433590000001,0.0733566284
2607,2.607,0.0931930542,0.051307678200000005
2608,2.608,0.1514816284,-0.0300216675
2609,2.609,0.1776885986,-0.1244354248
2610,2.61,0.0852203369,-0.1551818848
2611,2.6109999999999998,-0.0149536133,-0.1973724365
2612,2.612,-0.1226425171,-0.1718902588
2613,2.613,-0.1773071289,-0.1444625854
2614,2.614,-0.1442718506,-0.040473938
2615,2.615,-0.0634384155,0.0243759155
2616,2.616,-0.016784668000000003,0.1413726807
2617,2.617,-0.0225448608,0.21808624270000002
2618,2.618,-0.0312423706,0.20061492920000001
2619,2.6189999999999998,-0.0267410278,0.1097488403
2620,2.62,-0.020942688,-0.0015640259
2621,2.621,-0.0368881226,-0.0845718384
2622,2.622,-0.000038147,-0.099105835
2623,2.623,-0.0053787231,0.09620666500000001
2624,2.624,-0.0466156006,0.174369812
2625,2.625,-0.0654602051,0.17147064210000001
2626,2.626,-0.1071166992,0.1389312744
2627,2.627,-0.2017974854,-0.0100708008
2628,2.628,-0.20225524900000003,-0.1463317871
2629,2.629,-0.1496887207,-0.3421783447
2630,2.63,0.0210189819,-0.380859375
2631,2.6310000000000002,0.2800750732,-0.3582763672
2632,2.632,0.2066040039,-0.5729675293000001
2633,2.633,0.1076889038,-0.3130340576
2634,2.634,0.062446594200000004,-0.0997161865
2635,2.635,0.0359344482,-0.1404190063
2636,2.636,0.026397705100000002,-0.0745391846
2637,2.637,0.0275802612,-0.0716400146
2638,2.638,0.023612976100000002,-0.0661849976
2639,2.6390000000000002,0.018081665,-0.0673294067
2640,2.64,0.014839172400000001,-0.0673294067
2641,2.641,0.0004196167,-0.0634002686
2642,2.642,0.0002288818,-0.0653076172
2643,2.643,-0.0121688843,-0.0588989258
2644,2.644,0.0197601318,-0.060653686500000005
2645,2.645,0.038871765100000004,-0.0569534302
2646,2.646,0.0619888306,-0.0563812256
2647,2.6470000000000002,0.0594711304,-0.0562286377
2648,2.648,-0.006980896,-0.055847168
2649,2.649,-0.026130676300000003,-0.0519180298
2650,2.65,-0.0386810303,-0.0559616089
2651,2.651,-0.0910568237,-0.0497055054
2652,2.652,-0.1354980469,-0.0484848022
2653,2.653,-0.1104736328,-0.0468063354
2654,2.654,-0.051155090300000004,-0.047798156700000004
2655,2.6550000000000002,-0.0159072876,-0.045127868700000004
2656,2.656,0.012550354000000001,0.1340103149
2657,2.657,0.0037384033,0.0661468506
2658,2.658,-0.018196106,-0.031890869100000004
2659,2.659,-0.055313110400000004,-0.0775146484
2660,2.66,-0.065612793,-0.0604248047
2661,2.661,-0.002746582,-0.0679016113
2662,2.662,-0.0103378296,-0.0465011597
2663,2.6630000000000003,-0.0172042847,-0.050430297900000004
2664,2.664,-0.0246047974,0.0263595581
2665,2.665,-0.0198364258,0.0551605225
2666,2.666,-0.0666427612,0.0690078735
2667,2.667,-0.0958251953,0.1014709473
2668,2.668,0.0105667114,0.0756454468
2669,2.669,0.0748825073,-0.011138916
2670,2.67,0.082321167,-0.1097869873
2671,2.6710000000000003,0.0597000122,-0.1237487793
2672,2.672,0.0582504272,-0.0400543213
2673,2.673,0.0080871582,-0.0107192993
2674,2.674,0.0073623657,-0.0031280518
2675,2.675,0.0150680542,0.0177383423
2676,2.676,0.0090408325,-0.0085067749
2677,2.677,-0.0008773804,-0.0696563721
2678,2.678,-0.0246047974,-0.1188278198
2679,2.6790000000000003,-0.0211334229,-0.06137847900000001
2680,2.68,-0.025711059600000002,0.0004577637
2681,2.681,-0.0214767456,0.023727417
2682,2.682,-0.034103393600000004,0.028915405300000002
2683,2.683,-0.0030517578000000003,0.046272277800000004
2684,2.684,0.0244140625,0.0450515747
2685,2.685,0.0810623169,0.0610351562
2686,2.686,0.2164459229,0.028152465800000002
2687,2.6870000000000003,0.2434539795,0.0179290771
2688,2.688,0.1811218262,0.0395202637
2689,2.689,0.0283813477,0.06137847900000001
2690,2.69,-0.1582336426,0.032310485800000004
2691,2.691,-0.30540466310000003,0.0626754761
2692,2.692,-0.23204803470000002,0.1422119141
2693,2.693,-0.14537811280000001,0.17765045170000002
2694,2.694,-0.0860977173,0.1998138428
2695,2.6950000000000003,0.045013427700000004,0.1847076416
2696,2.696,0.0815200806,0.1780700684
2697,2.697,-0.057258606000000004,0.16590118410000002
2698,2.698,-0.2068710327,0.055618286100000004
2699,2.699,-0.2481460571,-0.1231765747
2700,2.7,-0.1943969727,-0.26176452640000003
2701,2.701,-0.1949310303,-0.2968597412
2702,2.702,-0.048751831100000004,-0.270652771
2703,2.7030000000000003,-0.0556564331,-0.1977539062
2704,2.7039999999999997,-0.048370361300000005,-0.1078414917
2705,2.705,0.16643524170000001,0.0058364868
2706,2.706,0.25169372560000003,-0.0113677979
2707,2.707,0.3575515747,-0.0012969971
2708,2.708,0.3324127197,-0.0082397461
2709,2.709,0.24448394780000002,0.0007247925
2710,2.71,0.16551971440000002,-0.0562286377
2711,2.711,0.0180053711,-0.0219726562
2712,2.7119999999999997,-0.0136184692,-0.0297927856
2713,2.713,-0.0201416016,0.0102615356
2714,2.714,-0.1553726196,-0.025978088400000002
2715,2.715,-0.26527404790000003,-0.0162506104
2716,2.716,-0.1696014404,-0.0277328491
2717,2.717,-0.0728607178,-0.0077056885
2718,2.718,0.09765625,0.0262832642
2719,2.719,0.1541900635,0.041084289600000004
2720,2.7199999999999998,0.0637054443,0.0282287598
2721,2.721,-0.0813674927,0.0424194336
2722,2.722,-0.010871887200000001,0.012931823700000001
2723,2.723,-0.059127807600000006,-0.0568008423
2724,2.724,-0.0771331787,0.0026702881000000003
2725,2.725,0.1121902466,0.018806457500000002
2726,2.726,0.0095748901,0.0424575806
2727,2.727,0.1132965088,-0.0741958618
2728,2.7279999999999998,0.2098083496,-0.1679229736
2729,2.729,0.1162719727,-0.21686553960000002
2730,2.73,0.2891159058,-0.17024993900000002
2731,2.731,0.3544998169,-0.1217651367
2732,2.732,0.1138687134,0.0400161743
2733,2.733,-0.0467681885,0.1859283447
2734,2.734,-0.1150512695,0.1950073242
2735,2.735,-0.0871658325,0.1387023926
2736,2.7359999999999998,-0.03490448,0.1893997192
2737,2.737,0.0458908081,0.1128768921
2738,2.738,0.0749206543,-0.0513839722
2739,2.739,-0.0022888184,-0.1507949829
2740,2.74,-0.0922012329,-0.0214385986
2741,2.741,-0.1105499268,0.1119995117
2742,2.742,-0.0972366333,0.2076721191
2743,2.743,-0.0774002075,0.3077316284
2744,2.7439999999999998,-0.0679397583,0.3982162476
2745,2.745,-0.050315856900000004,0.3977966309
2746,2.746,-0.0453567505,0.3817749023
2747,2.747,-0.0370025635,0.2919006348
2748,2.748,-0.0411605835,0.13813018800000001
2749,2.749,-0.0484466553,0.0971221924
2750,2.75,-0.0064849854000000005,0.1119995117
2751,2.751,0.0187683105,0.034866333
2752,2.752,0.0363922119,-0.0173568726
2753,2.753,0.0156021118,0.0021743774
2754,2.754,-0.0336074829,0.0052642822
2755,2.755,-0.1368331909,-0.0300598145
2756,2.7560000000000002,-0.1346969604,-0.0731277466
2757,2.757,-0.0913619995,-0.11028289790000001
2758,2.758,-0.050468444800000005,-0.1284790039
2759,2.759,0.0020980835,-0.099105835
2760,2.76,0.0494003296,-0.0186920166
2761,2.761,0.056304931600000004,0.0000762939
2762,2.762,0.036354064900000004,-0.0407409668
2763,2.763,0.0296783447,-0.1194381714
2764,2.7640000000000002,0.0999450684,-0.1747131348
2765,2.765,0.0118255615,-0.21709442140000001
2766,2.766,-0.13240814210000001,-0.22899627690000002
2767,2.767,-0.08586883540000001,-0.2827453613
2768,2.768,-0.0465774536,-0.2547073364
2769,2.769,-0.053215026900000004,-0.1545333862
2770,2.77,-0.0414276123,-0.0785064697
2771,2.771,-0.023002624500000002,0.0179290771
2772,2.7720000000000002,-0.027465820300000002,0.104675293
2773,2.773,-0.0788497925,0.0745391846
2774,2.774,-0.0932312012,0.036506652800000004
2775,2.775,-0.0648117065,0.0038146973000000002
2776,2.776,-0.0096893311,0.0114822388
2777,2.777,0.0849533081,0.0407409668
2778,2.778,0.0828552246,0.024528503400000002
2779,2.779,0.0559616089,-0.0038528442000000003
2780,2.7800000000000002,0.025787353500000002,0.0029373169
2781,2.781,0.041885376,0.0220489502
2782,2.782,0.02784729,0.0199127197
2783,2.783,-0.0719070435,0.012207031200000001
2784,2.784,-0.0778579712,0.0013351440000000001
2785,2.785,-0.0814437866,0.004234314
2786,2.786,-0.0630569458,0.0468826294
2787,2.787,0.26649475100000003,0.0492477417
2788,2.7880000000000003,0.2608108521,0.0260162354
2789,2.789,0.0260162354,-0.0080871582
2790,2.79,-0.0968551636,-0.0186920166
2791,2.791,-0.0542831421,0.0033950806
2792,2.792,-0.019226074200000002,0.0156784058
2793,2.793,0.038604736300000005,0.0399017334
2794,2.794,0.0877380371,0.051307678200000005
2795,2.795,0.0700759888,-0.0240707397
2796,2.7960000000000003,0.1226806641,-0.0872039795
2797,2.797,0.17299652100000001,-0.1651382446
2798,2.798,0.0953674316,-0.2117156982
